0.02625,0.008125,0.008125,0.011875,0.0075,0.005625,0.005625,0.000625,0.000625,0.008125,0.009375,0.008125,0.0175,0.028125,0.033125,0.034375,0.033125,0.03125,0.030625,0.029375,0.0275,0.02375,0.0175,0.00875,0,-0.00375,0.000625,0.00375,-0.0025,-0.00125,0.00875,0.014375,0.014375,0.015,0.01875,0.02125,0.019375,0.011875,0.00625,0.008125,0.01125,0.0075,0.0025,0.00125,0.004375,0.010625,0.011875,0.013125,0.0175,0.01875,0.02,0.026875,0.03375,0.035625,0.03125,0.0225,0.014375,0.008125,0,-0.00125,0.005,0.013125,0.016875,0.01375,0.00625,0,-0.001875,0.00375,0.015,0.02125,0.02125,0.021875,0.0275,0.038125,0.05125,0.063125,0.08125,0.11063,0.145,0.17688,0.20187,0.22312,0.24375,0.2575,0.27187,0.28313,0.28687,0.29875,0.32188,0.34437,0.37,0.39937,0.4225,0.44125,0.46063,0.4725,0.46125,0.435,0.41625,0.39187,0.34875,0.29812,0.24063,0.17062,0.11,0.08625,0.08875,0.069375,0.015625,-0.04,-0.075625,-0.09125,-0.10125,-0.13312,-0.18937,-0.24688,-0.29,-0.36,-0.485,-0.60437,-0.665,-0.67812,-0.65812,-0.64625,-0.67937,-0.71937,-0.71937,-0.69188,-0.665,-0.63562,-0.60375,-0.58688,-0.5725,-0.56437,-0.58937,-0.62062,-0.63187,-0.645,-0.6625,-0.6675,-0.665,-0.66875,-0.6575,-0.61813,-0.59062,-0.58,-0.55,-0.51313,-0.48938,-0.46375,-0.43062,-0.40063,-0.37125,-0.33313,-0.295,-0.26438,-0.2325,-0.19875,-0.16625,-0.13312,-0.10187,-0.081875,-0.070625,-0.0575,-0.04375,-0.031875,-0.025625,-0.02375,-0.02,-0.013125,-0.00625,0.000625,0.011875,0.021875,0.025,0.026875,0.033125,0.036875,0.034375,0.035625,0.04,0.0375,0.029375,0.024375,0.024375,0.02375,0.0175,0.0075,0.003125,0.003125,0.005625,0.011875,0.01375,0.009375,0.0075,0.009375,0.01375,0.020625,0.026875,0.03,0.031875,0.03625,0.044375,0.051875,0.056875,0.0575,0.054375,0.0525,0.04625,0.039375,0.036875,0.03875,0.04875,0.056875,0.048125,0.033125,0.02375,0.009375,-0.00375,0.00875,0.04375,0.063125,0.058125,0.055,0.05625,0.055,0.05,0.043125,0.03625,0.034375,0.043125,0.053125,0.0575,0.065,0.071875,0.065,0.049375,0.035,0.029375,0.036875,0.053125,0.064375,0.063125,0.05625,0.04875,0.040625,0.03125,0.025,0.025625,0.035,0.044375,0.045625,0.046875,0.051875,0.0575,0.060625,0.065,0.0675,0.05875,0.04625,0.0425,0.04375,0.04375,0.040625,0.04125,0.040625,0.0375,0.035625,0.033125,0.035,0.043125,0.049375,0.05375,0.05375,0.0475,0.04,0.035,0.029375,0.0275,0.033125,0.035,0.026875,0.0225,0.030625,0.04125,0.043125,0.045,0.050625,0.053125,0.056875,0.065,0.070625,0.070625,0.070625,0.068125,0.064375,0.0625,0.05875,0.05,0.04,0.03375,0.031875,0.034375,0.0375,0.03625,0.0375,0.049375,0.063125,0.068125,0.068125,0.066875,0.05625,0.04,0.029375,0.01625,-0.0025,-0.00125,0.015,0.0175,0.016875,0.03,0.04375,0.04875,0.05625,0.0675,0.069375,0.0675,0.07,0.070625,0.06625,0.060625,0.051875,0.04375,0.04,0.038125,0.038125,0.036875,0.04,0.0475,0.0475,0.038125,0.03375,0.036875,0.035,0.03375,0.040625,0.049375,0.05,0.04625,0.044375,0.046875,0.04625,0.04375,0.04625,0.044375,0.036875,0.029375,0.023125,0.016875,0.01875,0.025,0.02625,0.028125,0.031875,0.03125,0.031875,0.03125,0.026875,0.02625,0.025,0.02125,0.02,0.02375,0.03,0.03125,0.03,0.026875,0.01625,0.004375,-0.003125,-0.00625,-0.000625,0.00875,0.013125,0.013125,0.015,0.020625,0.02125,0.01875,0.01625,0.01625,0.01875,0.0225,0.026875,0.029375,0.028125,0.026875,0.026875,0.02625,0.020625,0.011875,0.006875,0.010625,0.023125,0.030625,0.0325,0.040625,0.041875,0.0275,0.0025,-0.021875,-0.0325,-0.02625,-0.015,-0.009375,0.00375,0.02375,0.033125,0.031875,0.035625,0.043125,0.04125,0.03625,0.035625,0.031875,0.02625,0.0325,0.048125,0.05125,0.045625,0.045625,0.0475,0.04625,0.04625,0.05,0.0525,0.048125,0.041875,0.04,0.04,0.04,0.049375,0.06,0.06,0.05375,0.055,0.06375,0.074375,0.08,0.079375,0.075625,0.073125,0.06875,0.0625,0.0525,0.0425,0.040625,0.04625,0.04875,0.043125,0.044375,0.054375,0.059375,0.056875,0.055,0.0575,0.059375,0.059375,0.06125,0.063125,0.0625,0.056875,0.054375,0.06125,0.06625,0.07,0.078125,0.08375,0.0875,0.085,0.076875,0.068125,0.055,0.040625,0.03125,0.02875,0.035625,0.051875,0.071875,0.08375,0.07875,0.061875,0.045625,0.04125,0.041875,0.04375,0.049375,0.059375,0.0775,0.094375,0.095625,0.0825,0.065625,0.05375,0.044375,0.035625,0.035,0.05,0.068125,0.06375,0.056875,0.064375,0.06875,0.068125,0.069375,0.063125,0.05,0.04,0.0375,0.04125,0.051875,0.065625,0.075625,0.078125,0.07625,0.07375,0.06875,0.06,0.050625,0.048125,0.04875,0.04875,0.053125,0.055625,0.055625,0.0575,0.058125,0.055,0.051875,0.05125,0.054375,0.056875,0.06,0.063125,0.060625,0.0575,0.05625,0.05875,0.064375,0.064375,0.061875,0.061875,0.06125,0.06125,0.0625,0.060625,0.056875,0.056875,0.05875,0.060625,0.064375,0.0675,0.078125,0.091875,0.095,0.095,0.098125,0.095,0.085625,0.07375,0.055625,0.04,0.040625,0.049375,0.05125,0.046875,0.04375,0.05,0.06375,0.07375,0.073125,0.065625,0.055,0.043125,0.036875,0.036875,0.03375,0.03125,0.04375,0.064375,0.071875,0.06875,0.065,0.059375,0.055625,0.055625,0.05375,0.051875,0.0525,0.053125,0.056875,0.063125,0.066875,0.069375,0.06875,0.06375,0.058125,0.051875,0.046875,0.041875,0.03625,0.03375,0.0375,0.045625,0.05375,0.0575,0.058125,0.05875,0.051875,0.0425,0.0425,0.04625,0.04875,0.048125,0.041875,0.03375,0.0325,0.034375,0.031875,0.030625,0.034375,0.04,0.04375,0.044375,0.04375,0.04375,0.044375,0.045625,0.040625,0.035625,0.031875,0.029375,0.033125,0.043125,0.045,0.03625,0.03,0.031875,0.03625,0.043125,0.05125,0.056875,0.06375,0.06875,0.06375,0.055625,0.05375,0.054375,0.048125,0.03875,0.033125,0.024375,0.016875,0.015625,0.0275,0.05125,0.066875,0.0575,0.043125,0.0425,0.043125,0.035625,0.02625,0.016875,0.006875,0.005,0.010625,0.01125,0.00875,0.01,0.0175,0.025625,0.0225,0.01875,0.023125,0.03,0.033125,0.0375,0.04125,0.040625,0.036875,0.02875,0.02375,0.02375,0.0225,0.01875,0.023125,0.03,0.03375,0.038125,0.04,0.038125,0.035,0.033125,0.035,0.04125,0.043125,0.04,0.035,0.030625,0.03,0.028125,0.02375,0.02,0.020625,0.02625,0.028125,0.0225,0.021875,0.031875,0.038125,0.034375,0.030625,0.03125,0.036875,0.041875,0.036875,0.03125,0.039375,0.05375,0.056875,0.050625,0.045,0.038125,0.025,0.009375,-0.000625,0.00125,0.0075,0.010625,0.01875,0.029375,0.033125,0.031875,0.02875,0.025625,0.02375,0.024375,0.026875,0.03125,0.04125,0.05625,0.06625,0.0625,0.053125,0.04875,0.045625,0.039375,0.04,0.056875,0.0725,0.06625,0.053125,0.049375,0.046875,0.045625,0.05,0.0525,0.048125,0.046875,0.053125,0.06,0.06875,0.0775,0.085,0.093125,0.099375,0.10312,0.10625,0.11,0.11125,0.10625,0.10125,0.10312,0.105,0.10063,0.1025,0.11188,0.12437,0.13812,0.145,0.135,0.12062,0.11063,0.10625,0.11438,0.13125,0.13812,0.13812,0.13687,0.1275,0.11313,0.10312,0.096875,0.088125,0.084375,0.080625,0.068125,0.048125,0.02875,0.02,0.020625,0.02375,0.024375,0.015,-0.0025,-0.010625,-0.005625,0.001875,0.006875,0.0075,0.00125,-0.004375,-0.0075,-0.01375,-0.01625,-0.006875,0.0025,0.000625,-0.000625,0.005625,0.014375,0.021875,0.02625,0.028125,0.02625,0.0175,0.01,0.00375,-0.00125,-0.00125,-0.0025,-0.00875,-0.014375,-0.011875,0,0.011875,0.01625,0.014375,0.009375,-0.000625,-0.00875,-0.015,-0.020625,-0.021875,-0.015625,-0.006875,-0.0025,-0.00125,-0.000625,-0.00375,-0.0075,0,0.015625,0.024375,0.0175,0.00375,-0.00375,-0.009375,-0.023125,-0.036875,-0.0375,-0.026875,-0.010625,-0.001875,0,0,-0.00125,-0.003125,-0.001875,0,-0.000625,-0.00375,-0.008125,-0.00875,-0.00375,0.005625,0.01625,0.020625,0.020625,0.021875,0.01875,0.015,0.015625,0.013125,0.00625,0.0025,-0.001875,-0.005625,-0.005625,-0.003125,0.000625,-0.004375,-0.019375,-0.033125,-0.041875,-0.036875,-0.014375,0.010625,0.021875,0.02375,0.035625,0.065,0.09625,0.12812,0.15812,0.18,0.19812,0.21813,0.2375,0.25312,0.26562,0.28,0.29688,0.31,0.315,0.32125,0.3425,0.37625,0.405,0.4175,0.41937,0.41625,0.40813,0.39437,0.36688,0.32562,0.28063,0.23,0.16687,0.1,0.055,0.035625,0.009375,-0.041875,-0.09375,-0.12562,-0.13562,-0.1375,-0.16125,-0.22187,-0.285,-0.32188,-0.37312,-0.485,-0.6,-0.65687,-0.68063,-0.68063,-0.665,-0.67937,-0.72625,-0.75562,-0.73438,-0.68375,-0.63,-0.5925,-0.57625,-0.56063,-0.545,-0.55563,-0.57437,-0.58313,-0.59437,-0.61125,-0.62938,-0.6575,-0.67312,-0.64875,-0.60813,-0.58313,-0.56937,-0.55625,-0.54812,-0.5425,-0.52625,-0.49062,-0.43125,-0.36312,-0.32,-0.3025,-0.28625,-0.265,-0.23813,-0.205,-0.17375,-0.145,-0.11688,-0.0925,-0.07375,-0.055,-0.035,-0.02375,-0.018125,-0.010625,-0.00875,-0.01375,-0.016875,-0.02125,-0.0275,-0.02375,-0.008125,-0.000625,-0.001875,0.000625,0.00625,0.01125,0.0125,0.010625,0.011875,0.0125,0.00875,0.006875,0.009375,0.011875,0.011875,0.011875,0.01125,0.011875,0.01125,0.008125,0.001875,-0.00875,-0.01625,-0.015625,-0.00125,0.015625,0.018125,0.014375,0.019375,0.026875,0.02875,0.0275,0.024375,0.02125,0.02375,0.024375,0.0225,0.020625,0.0175,0.0175,0.021875,0.025625,0.026875,0.02875,0.035,0.041875,0.045,0.036875,0.021875,0.01,0.005625,0.00375,0.000625,0.000625,0.01375,0.025,0.02625,0.02375,0.025,0.029375,0.03625,0.045625,0.05125,0.05125,0.05125,0.05125,0.04625,0.035625,0.024375,0.01625,0.01875,0.03,0.030625,0.026875,0.035,0.04625,0.049375,0.03625,0.01625,0.00375,-0.009375,-0.023125,-0.018125,0.005625,0.024375,0.023125,0.01375,0.01,0.015,0.025,0.0325,0.036875,0.040625,0.043125,0.04125,0.03875,0.040625,0.040625,0.031875,0.02,0.0175,0.020625,0.019375,0.01625,0.01625,0.01875,0.02,0.02,0.02125,0.023125,0.023125,0.0225,0.0225,0.02,0.0175,0.010625,0.00375,0.0025,0.003125,0.005625,0.01375,0.0225,0.025,0.02125,0.018125,0.018125,0.0225,0.028125,0.034375,0.041875,0.044375,0.04125,0.03625,0.031875,0.025625,0.0175,0.01625,0.02,0.0225,0.02125,0.016875,0.014375,0.0125,0.009375,0.00625,0.006875,0.00875,0.008125,0.008125,0.009375,0.00875,0.009375,0.011875,0.015,0.019375,0.0275,0.03375,0.033125,0.03,0.026875,0.029375,0.035625,0.03625,0.0325,0.02125,0.00625,-0.00125,-0.0075,-0.020625,-0.031875,-0.02375,0.00375,0.0225,0.02,0.01125,0.00625,0.00625,0.013125,0.016875,0.015625,0.0175,0.02375,0.029375,0.025,0.01,-0.001875,0.0025,0.01375,0.016875,0.00875,-0.000625,-0.0075,-0.01125,-0.00375,0.00375,0.006875,0.01125,0.01,0.005625,0.005625,0.006875,0.010625,0.018125,0.024375,0.0225,0.011875,0.000625,-0.009375,-0.0225,-0.039375,-0.04625,-0.0325,-0.00625,0.01,0.003125,-0.009375,-0.01875,-0.03,-0.041875,-0.045625,-0.041875,-0.04,-0.040625,-0.04,-0.0375,-0.0275,-0.0175,-0.014375,-0.010625,-0.005,-0.00375,-0.004375,-0.005,-0.01125,-0.020625,-0.02625,-0.026875,-0.028125,-0.02625,-0.0175,-0.01,-0.00875,-0.009375,-0.005625,-0.000625,0.000625,0.0025,0.005625,0.006875,0.006875,0.00875,0.01125,0.014375,0.0175,0.02,0.02375,0.02375,0.0175,0.01125,0.015625,0.031875,0.039375,0.034375,0.03,0.025,0.020625,0.01875,0.014375,0.00875,0.01625,0.03875,0.0525,0.053125,0.05375,0.05375,0.049375,0.043125,0.03625,0.03125,0.03375,0.04,0.045,0.05,0.05,0.046875,0.045,0.040625,0.033125,0.02875,0.031875,0.038125,0.03625,0.0275,0.021875,0.02,0.01625,0.013125,0.0175,0.029375,0.040625,0.044375,0.0425,0.045,0.051875,0.0525,0.04875,0.03875,0.02625,0.01875,0.0175,0.016875,0.0225,0.03625,0.044375,0.043125,0.03875,0.031875,0.023125,0.01625,0.016875,0.02625,0.038125,0.045625,0.046875,0.04375,0.036875,0.028125,0.0225,0.0225,0.02375,0.02625,0.034375,0.046875,0.051875,0.04875,0.046875,0.045625,0.043125,0.043125,0.04625,0.049375,0.054375,0.056875,0.055,0.05625,0.059375,0.06,0.055625,0.051875,0.05,0.044375,0.03625,0.0375,0.04875,0.058125,0.059375,0.059375,0.05875,0.051875,0.044375,0.03125,0.01875,0.0275,0.046875,0.046875,0.041875,0.04625,0.04625,0.04625,0.054375,0.06,0.0625,0.065,0.065625,0.061875,0.055625,0.05,0.0425,0.035625,0.043125,0.0525,0.050625,0.043125,0.043125,0.051875,0.05375,0.0475,0.04375,0.04375,0.040625,0.034375,0.035,0.039375,0.044375,0.05125,0.053125,0.049375,0.046875,0.04625,0.04125,0.036875,0.038125,0.04125,0.0475,0.056875,0.06375,0.065,0.060625,0.055625,0.05375,0.05375,0.05125,0.04625,0.040625,0.035625,0.0275,0.02,0.0225,0.025625,0.021875,0.015,0.010625,0.01875,0.03875,0.055,0.060625,0.06,0.055625,0.05125,0.046875,0.04,0.029375,0.018125,0.018125,0.030625,0.038125,0.0325,0.0275,0.030625,0.03125,0.026875,0.028125,0.036875,0.04125,0.038125,0.03875,0.043125,0.04375,0.04,0.036875,0.036875,0.04375,0.04625,0.044375,0.0425,0.043125,0.0475,0.039375,0.015625,-0.000625,0.008125,0.025625,0.02125,0.009375,0.014375,0.025,0.030625,0.030625,0.025625,0.0225,0.02375,0.023125,0.02,0.01875,0.02,0.023125,0.025,0.021875,0.019375,0.024375,0.028125,0.020625,0.018125,0.028125,0.035625,0.031875,0.03125,0.044375,0.05875,0.056875,0.044375,0.03375,0.020625,0.00625,0.003125,0.01375,0.02125,0.025,0.029375,0.024375,0.01125,0.003125,0.005,0.01375,0.019375,0.02125,0.025625,0.02625,0.023125,0.02375,0.024375,0.02375,0.0275,0.02875,0.025,0.02125,0.018125,0.013125,0.0075,0.005,0.008125,0.013125,0.018125,0.025,0.026875,0.02,0.01,0.00375,0.00625,0.01125,0.0125,0.013125,0.0125,0.010625,0.0125,0.015625,0.02,0.028125,0.030625,0.028125,0.028125,0.02875,0.023125,0.009375,-0.004375,-0.0025,0.02,0.038125,0.03875,0.029375,0.020625,0.0175,0.018125,0.01875,0.018125,0.01875,0.021875,0.02125,0.01875,0.023125,0.026875,0.020625,0.013125,0.008125,-0.001875,-0.00875,-0.005625,0.001875,0.005625,0.008125,0.01125,0.01,0.009375,0.013125,0.019375,0.028125,0.035,0.035625,0.0325,0.036875,0.048125,0.050625,0.0475,0.045625,0.039375,0.03375,0.039375,0.0425,0.0325,0.0275,0.040625,0.0525,0.0575,0.063125,0.071875,0.0775,0.075,0.065,0.0525,0.044375,0.039375,0.03375,0.03125,0.03375,0.041875,0.060625,0.0775,0.084375,0.089375,0.088125,0.0875,0.095,0.10312,0.105,0.105,0.10687,0.11,0.11375,0.11625,0.11438,0.11375,0.11563,0.11875,0.11688,0.11438,0.11375,0.11875,0.12687,0.13,0.12375,0.1175,0.1125,0.10625,0.09625,0.086875,0.08,0.084375,0.10063,0.10063,0.08375,0.06875,0.054375,0.041875,0.03,0.0175,0.008125,0.003125,0.0025,0.008125,0.011875,0.0075,0.003125,-0.000625,-0.00625,-0.01,-0.010625,-0.01125,-0.009375,-0.001875,0.0075,0.01125,0.010625,0.01375,0.013125,0.00625,0.0075,0.0175,0.0225,0.018125,0.01375,0.00375,-0.01125,-0.016875,-0.01375,-0.008125,0.005,0.02125,0.023125,0.014375,0.005,-0.00625,-0.016875,-0.01875,-0.01625,-0.0125,-0.01,-0.011875,-0.013125,-0.006875,0.0025,0.00625,0.0075,0.011875,0.01625,0.011875,0.00125,-0.010625,-0.021875,-0.029375,-0.03375,-0.030625,-0.024375,-0.0225,-0.02125,-0.01625,-0.01125,-0.009375,-0.01125,-0.009375,-0.006875,-0.00625,-0.009375,-0.014375,-0.018125,-0.02,-0.023125,-0.0225,-0.01875,-0.014375,-0.00875,-0.004375,-0.0025,0,0.0075,0.015,0.016875,0.0175,0.015,0.006875,-0.003125,-0.009375,-0.005,0.00625,0.00875,-0.004375,-0.009375,0.000625,0.0025,-0.005,-0.005625,-0.00125,0.008125,0.024375,0.048125,0.078125,0.115,0.14875,0.17188,0.19562,0.22,0.22625,0.2275,0.23625,0.24688,0.2675,0.29437,0.3075,0.31188,0.33063,0.36375,0.39125,0.40563,0.41313,0.42438,0.43125,0.42125,0.39313,0.3525,0.31,0.26188,0.2025,0.13812,0.094375,0.079375,0.05375,-0.005625,-0.074375,-0.1275,-0.14625,-0.16187,-0.23813,-0.35,-0.42188,-0.465,-0.53938,-0.63562,-0.71062,-0.765,-0.78187,-0.76812,-0.80312,-0.88813,-0.93188,-0.90875,-0.85625,-0.80563,-0.77312,-0.765,-0.76938,-0.77125,-0.775,-0.77,-0.745,-0.72437,-0.72188,-0.735,-0.76625,-0.78687,-0.77063,-0.73062,-0.69375,-0.66687,-0.6375,-0.60688,-0.58188,-0.545,-0.495,-0.44188,-0.38875,-0.34313,-0.30625,-0.2725,-0.23938,-0.21063,-0.18,-0.14625,-0.11875,-0.0975,-0.08,-0.065,-0.055625,-0.041875,-0.02125,-0.011875,-0.016875,-0.020625,-0.018125,-0.011875,-0.011875,-0.0175,-0.013125,-0.000625,0.01,0.01375,0.014375,0.019375,0.03,0.03625,0.035625,0.02875,0.018125,0.010625,0.005,-0.00375,-0.015,-0.020625,-0.01,0.009375,0.014375,0.011875,0.015625,0.021875,0.026875,0.02625,0.02375,0.02625,0.0325,0.03625,0.035,0.031875,0.03125,0.029375,0.0275,0.02625,0.025625,0.026875,0.03,0.026875,0.020625,0.021875,0.02875,0.034375,0.0375,0.0375,0.0325,0.025625,0.021875,0.021875,0.021875,0.021875,0.023125,0.029375,0.043125,0.045625,0.035625,0.0325,0.0375,0.038125,0.035,0.03375,0.031875,0.03,0.0325,0.044375,0.0575,0.06125,0.058125,0.054375,0.04375,0.03125,0.023125,0.02125,0.0275,0.031875,0.028125,0.029375,0.04125,0.045,0.039375,0.04125,0.048125,0.05,0.04875,0.046875,0.04375,0.04,0.035625,0.030625,0.029375,0.03625,0.041875,0.039375,0.03875,0.04,0.043125,0.04875,0.051875,0.05,0.0475,0.044375,0.038125,0.036875,0.03875,0.03625,0.035,0.043125,0.051875,0.053125,0.045625,0.038125,0.036875,0.04375,0.05125,0.05,0.041875,0.039375,0.045625,0.048125,0.046875,0.048125,0.048125,0.04875,0.05375,0.054375,0.046875,0.044375,0.05375,0.059375,0.05,0.03375,0.0225,0.0225,0.0325,0.045,0.0475,0.039375,0.034375,0.03375,0.03125,0.0275,0.0325,0.046875,0.06,0.0625,0.0575,0.055,0.058125,0.060625,0.06,0.063125,0.065,0.060625,0.055,0.054375,0.055625,0.056875,0.058125,0.05625,0.0525,0.0475,0.039375,0.031875,0.033125,0.048125,0.059375,0.063125,0.0675,0.068125,0.0575,0.04125,0.02875,0.026875,0.039375,0.04875,0.041875,0.036875,0.039375,0.039375,0.039375,0.0475,0.06,0.068125,0.069375,0.069375,0.068125,0.065,0.061875,0.060625,0.05875,0.05875,0.06375,0.0675,0.06,0.04375,0.025625,0.011875,0.013125,0.02875,0.04625,0.050625,0.045,0.04375,0.045625,0.041875,0.03375,0.025625,0.019375,0.02,0.026875,0.02875,0.023125,0.025625,0.033125,0.035,0.03125,0.02875,0.033125,0.038125,0.036875,0.03375,0.034375,0.03875,0.038125,0.03625,0.035,0.0325,0.02875,0.02375,0.019375,0.02125,0.031875,0.046875,0.055625,0.055625,0.05125,0.046875,0.0425,0.031875,0.016875,0.010625,0.024375,0.040625,0.038125,0.0275,0.02625,0.025,0.018125,0.0125,0.014375,0.026875,0.04625,0.0525,0.04375,0.041875,0.04625,0.048125,0.046875,0.041875,0.0375,0.0375,0.034375,0.03125,0.03125,0.03125,0.035,0.041875,0.048125,0.05,0.04625,0.045,0.05,0.055625,0.060625,0.06125,0.05625,0.05125,0.044375,0.0325,0.021875,0.019375,0.02375,0.03,0.03375,0.03625,0.040625,0.044375,0.044375,0.046875,0.054375,0.06,0.0575,0.05125,0.045,0.044375,0.049375,0.0525,0.05125,0.048125,0.045,0.043125,0.04125,0.04,0.04625,0.05375,0.055625,0.05625,0.0575,0.059375,0.0575,0.05375,0.04875,0.043125,0.03625,0.0325,0.0275,0.02375,0.029375,0.045,0.054375,0.048125,0.04125,0.0425,0.04625,0.054375,0.065625,0.0625,0.041875,0.02625,0.0225,0.016875,0.018125,0.038125,0.055,0.055,0.051875,0.05125,0.051875,0.06125,0.075,0.083125,0.085,0.085625,0.0875,0.08125,0.065625,0.051875,0.039375,0.03,0.02875,0.035,0.041875,0.04875,0.05625,0.05375,0.043125,0.03875,0.040625,0.041875,0.04875,0.05625,0.051875,0.048125,0.0525,0.054375,0.048125,0.0425,0.0425,0.046875,0.050625,0.05375,0.0625,0.071875,0.075,0.0725,0.07,0.06625,0.05875,0.0525,0.050625,0.048125,0.045,0.045625,0.04875,0.053125,0.06125,0.07125,0.075,0.0725,0.07,0.068125,0.05875,0.04875,0.046875,0.04875,0.04875,0.04875,0.04625,0.045625,0.053125,0.0625,0.066875,0.069375,0.069375,0.063125,0.056875,0.05375,0.051875,0.048125,0.0425,0.04125,0.049375,0.06,0.06125,0.061875,0.07125,0.0825,0.088125,0.095,0.0975,0.090625,0.078125,0.060625,0.044375,0.04375,0.061875,0.083125,0.083125,0.065,0.0525,0.04625,0.040625,0.03625,0.035,0.040625,0.05125,0.0525,0.038125,0.02875,0.031875,0.04,0.045,0.046875,0.044375,0.04,0.0425,0.050625,0.05375,0.048125,0.041875,0.041875,0.048125,0.0575,0.063125,0.060625,0.0575,0.058125,0.06125,0.06125,0.05625,0.05,0.04375,0.03875,0.04125,0.04875,0.0525,0.048125,0.04125,0.034375,0.029375,0.0275,0.02375,0.020625,0.021875,0.02375,0.02125,0.019375,0.021875,0.02625,0.028125,0.029375,0.030625,0.03125,0.03625,0.041875,0.041875,0.039375,0.039375,0.041875,0.043125,0.04375,0.040625,0.036875,0.03125,0.0225,0.0125,0.00875,0.015,0.023125,0.0275,0.03375,0.041875,0.0475,0.05125,0.0575,0.06375,0.06375,0.06375,0.0625,0.053125,0.038125,0.025,0.0175,0.0125,0.008125,0.01,0.009375,0.00625,0.01875,0.03,0.023125,0.019375,0.0275,0.030625,0.030625,0.03125,0.0275,0.023125,0.02125,0.0225,0.02625,0.03875,0.050625,0.05375,0.050625,0.044375,0.036875,0.0275,0.015,0.01,0.01875,0.031875,0.03375,0.02625,0.0225,0.02375,0.0275,0.028125,0.025,0.02125,0.015,0.00875,0.009375,0.01875,0.025625,0.025,0.02,0.013125,0.00625,0,-0.005625,-0.0025,0.005,0.01375,0.023125,0.02875,0.030625,0.031875,0.036875,0.040625,0.040625,0.041875,0.0375,0.029375,0.02125,0.013125,0.00875,0.008125,0.011875,0.01875,0.025,0.035625,0.046875,0.046875,0.040625,0.03375,0.026875,0.01875,0.005,-0.01,-0.00625,0.013125,0.01875,0.013125,0.016875,0.025625,0.028125,0.029375,0.030625,0.028125,0.03125,0.038125,0.04,0.04125,0.041875,0.043125,0.04875,0.059375,0.070625,0.0775,0.07875,0.07625,0.07625,0.074375,0.065625,0.06,0.058125,0.05,0.041875,0.043125,0.055,0.06875,0.075,0.07625,0.085,0.1,0.105,0.1,0.09625,0.094375,0.094375,0.096875,0.0975,0.10312,0.11438,0.12312,0.12875,0.13687,0.14,0.1375,0.14438,0.15625,0.15687,0.1525,0.1475,0.13562,0.12125,0.11812,0.11688,0.10187,0.0875,0.088125,0.089375,0.085,0.076875,0.058125,0.04,0.035,0.036875,0.036875,0.035,0.034375,0.0325,0.030625,0.021875,0.005625,-0.004375,-0.008125,-0.006875,-0.00625,-0.009375,-0.0125,-0.016875,-0.0175,-0.0125,-0.005625,0.003125,0.013125,0.024375,0.03125,0.03,0.025,0.0225,0.021875,0.0125,-0.005625,-0.025625,-0.03375,-0.02,0,0,-0.006875,-0.000625,0.0075,0.006875,0.00375,-0.000625,-0.005,-0.00875,-0.01125,-0.010625,-0.00875,-0.0025,0.00375,0.0075,0.013125,0.014375,0.010625,0.015,0.031875,0.04375,0.035,0.021875,0.01375,0.001875,-0.006875,-0.0075,-0.015625,-0.026875,-0.0275,-0.024375,-0.03125,-0.034375,-0.023125,-0.006875,0.003125,0.0025,-0.005625,-0.015,-0.0175,-0.0125,-0.005,0.003125,0.00625,0.001875,-0.00125,-0.004375,-0.01,-0.014375,-0.01625,-0.018125,-0.018125,-0.01125,-0.003125,-0.0025,-0.00375,0.000625,0.006875,0.0075,0.01,0.01875,0.0225,0.018125,0.0125,0.006875,0.0025,0,-0.003125,-0.004375,0.01125,0.053125,0.095,0.12187,0.14438,0.17,0.19625,0.21688,0.2325,0.245,0.255,0.27125,0.29875,0.31938,0.33125,0.35,0.38,0.41187,0.4375,0.455,0.46125,0.44688,0.41563,0.38375,0.35063,0.31312,0.26625,0.2,0.13062,0.08375,0.06625,0.050625,0.010625,-0.04125,-0.0875,-0.10625,-0.11563,-0.17875,-0.29187,-0.38875,-0.45,-0.5225,-0.61813,-0.69625,-0.7525,-0.7825,-0.77938,-0.80437,-0.87,-0.91375,-0.9025,-0.85313,-0.79375,-0.74125,-0.72688,-0.74062,-0.75125,-0.76562,-0.77625,-0.77187,-0.76938,-0.7725,-0.77312,-0.77938,-0.78,-0.75375,-0.71437,-0.68375,-0.65938,-0.63125,-0.60313,-0.575,-0.53438,-0.485,-0.4375,-0.39,-0.34875,-0.32312,-0.29938,-0.26687,-0.22937,-0.19437,-0.16375,-0.13437,-0.10938,-0.090625,-0.07125,-0.050625,-0.03625,-0.02625,-0.018125,-0.015,-0.01625,-0.018125,-0.01625,-0.011875,-0.005,0.01125,0.024375,0.020625,0.018125,0.0175,0.01125,0.009375,0.013125,0.01375,0.01125,0.0075,0.001875,-0.0025,-0.00375,0.000625,0.010625,0.023125,0.0375,0.05,0.0525,0.044375,0.02875,0.01375,0.0075,0.01,0.009375,0.004375,0.01,0.03,0.0475,0.051875,0.0425,0.02375,0.010625,0.00875,0.010625,0.0125,0.01875,0.02875,0.034375,0.033125,0.033125,0.031875,0.024375,0.018125,0.015625,0.01625,0.021875,0.0325,0.045,0.05375,0.055,0.05375,0.054375,0.056875,0.0625,0.0625,0.058125,0.056875,0.0525,0.045,0.03875,0.026875,0.019375,0.025,0.029375,0.025625,0.026875,0.036875,0.045,0.045,0.04,0.035625,0.034375,0.033125,0.03125,0.025625,0.02625,0.04,0.0525,0.050625,0.049375,0.054375,0.055,0.05,0.04875,0.045625,0.04,0.03625,0.030625,0.026875,0.0325,0.045625,0.05125,0.050625,0.05,0.049375,0.050625,0.051875,0.051875,0.055625,0.0625,0.066875,0.0675,0.064375,0.056875,0.05,0.045,0.04125,0.039375,0.043125,0.05125,0.0525,0.043125,0.034375,0.0275,0.0175,0.015625,0.03,0.05,0.059375,0.059375,0.060625,0.058125,0.05375,0.0525,0.050625,0.05,0.050625,0.0475,0.043125,0.04375,0.048125,0.051875,0.059375,0.064375,0.06,0.0575,0.06125,0.06375,0.061875,0.05875,0.05375,0.045,0.03375,0.02875,0.0375,0.0525,0.056875,0.051875,0.054375,0.06,0.06,0.05625,0.055625,0.0575,0.058125,0.05625,0.04875,0.039375,0.035,0.04125,0.05375,0.0575,0.05375,0.051875,0.050625,0.045625,0.0375,0.026875,0.029375,0.04875,0.059375,0.055,0.053125,0.053125,0.050625,0.048125,0.045625,0.048125,0.058125,0.0625,0.059375,0.059375,0.059375,0.05625,0.051875,0.045625,0.04,0.0375,0.03875,0.040625,0.0375,0.02875,0.025,0.030625,0.04,0.045,0.045,0.045,0.049375,0.050625,0.048125,0.05125,0.05625,0.0525,0.045625,0.043125,0.040625,0.03625,0.038125,0.045625,0.04375,0.034375,0.023125,0.011875,0.005,0.003125,-0.00125,-0.00625,-0.001875,0.005,0.006875,0.01125,0.019375,0.02125,0.01875,0.018125,0.01875,0.02,0.02375,0.028125,0.026875,0.025,0.034375,0.04625,0.048125,0.041875,0.030625,0.015,0.001875,-0.00125,-0.005,-0.010625,0,0.023125,0.034375,0.035,0.033125,0.03,0.026875,0.02375,0.02375,0.030625,0.04,0.045,0.045625,0.045,0.04,0.0325,0.024375,0.0125,0.004375,0.014375,0.031875,0.038125,0.034375,0.033125,0.03875,0.0425,0.03875,0.03625,0.035,0.031875,0.030625,0.033125,0.0375,0.040625,0.040625,0.0375,0.036875,0.040625,0.041875,0.03875,0.035625,0.03625,0.04,0.04625,0.045625,0.035,0.030625,0.03625,0.04125,0.041875,0.04375,0.046875,0.053125,0.060625,0.06625,0.06375,0.055625,0.04375,0.03375,0.029375,0.0275,0.031875,0.034375,0.030625,0.025625,0.0225,0.026875,0.03875,0.045,0.046875,0.046875,0.04375,0.045,0.055,0.063125,0.063125,0.058125,0.053125,0.05375,0.06,0.06,0.050625,0.043125,0.04125,0.034375,0.020625,0.01375,0.014375,0.0175,0.026875,0.031875,0.030625,0.034375,0.041875,0.0475,0.046875,0.04625,0.05125,0.0575,0.059375,0.0575,0.054375,0.05125,0.055,0.059375,0.054375,0.05375,0.061875,0.064375,0.059375,0.055625,0.054375,0.055625,0.064375,0.066875,0.05375,0.04125,0.0425,0.044375,0.041875,0.0425,0.04875,0.04875,0.04625,0.05,0.056875,0.06,0.06,0.053125,0.0425,0.03375,0.026875,0.025,0.035,0.054375,0.066875,0.07,0.0725,0.07,0.060625,0.05125,0.04375,0.03875,0.046875,0.066875,0.076875,0.075,0.07375,0.0725,0.0675,0.06125,0.054375,0.05125,0.054375,0.050625,0.041875,0.045,0.056875,0.059375,0.049375,0.038125,0.0375,0.05,0.059375,0.05375,0.0475,0.045625,0.0425,0.04,0.04,0.043125,0.045625,0.045,0.04625,0.049375,0.0525,0.053125,0.051875,0.05,0.048125,0.045,0.0425,0.04375,0.045,0.041875,0.04125,0.043125,0.045625,0.048125,0.05125,0.055625,0.055,0.0475,0.041875,0.0375,0.035625,0.0375,0.03875,0.0375,0.04375,0.053125,0.053125,0.049375,0.049375,0.04625,0.04,0.039375,0.04625,0.048125,0.0425,0.038125,0.035,0.033125,0.035625,0.04,0.03875,0.031875,0.02625,0.0225,0.02,0.0225,0.025,0.026875,0.035,0.045,0.044375,0.035,0.025625,0.02,0.016875,0.01625,0.016875,0.01875,0.021875,0.025,0.02875,0.035,0.043125,0.048125,0.045625,0.043125,0.04375,0.04,0.02875,0.018125,0.01875,0.026875,0.028125,0.026875,0.0275,0.02375,0.01625,0.01625,0.02,0.01875,0.016875,0.01875,0.02125,0.019375,0.018125,0.024375,0.02875,0.029375,0.02875,0.021875,0.013125,0.01,0.006875,-0.000625,-0.00625,-0.00625,-0.010625,-0.0175,-0.008125,0.014375,0.026875,0.028125,0.025625,0.02125,0.016875,0.010625,-0.000625,-0.003125,0.01375,0.034375,0.035625,0.02625,0.024375,0.025625,0.024375,0.025,0.023125,0.01875,0.014375,0.0075,0.00125,0.005,0.02375,0.040625,0.045,0.043125,0.038125,0.0275,0.019375,0.016875,0.015625,0.014375,0.01875,0.030625,0.0375,0.03,0.019375,0.015,0.016875,0.024375,0.031875,0.03625,0.038125,0.035625,0.026875,0.018125,0.01125,0.0025,-0.004375,-0.00625,-0.0025,0.004375,0.006875,0.0075,0.009375,0.011875,0.014375,0.02125,0.0325,0.038125,0.035625,0.031875,0.02875,0.0275,0.02875,0.030625,0.031875,0.0375,0.04125,0.03375,0.02625,0.031875,0.04375,0.048125,0.055,0.07,0.075625,0.0625,0.04375,0.02875,0.020625,0.0325,0.05,0.046875,0.04,0.05,0.058125,0.058125,0.06,0.064375,0.068125,0.07375,0.081875,0.08875,0.094375,0.1025,0.11,0.11313,0.115,0.11875,0.12187,0.12312,0.12062,0.11563,0.11125,0.10875,0.10687,0.11063,0.11937,0.12375,0.12125,0.11438,0.11,0.11,0.11125,0.11313,0.11563,0.11188,0.10437,0.09375,0.07875,0.06,0.0425,0.030625,0.0225,0.023125,0.029375,0.026875,0.01,-0.006875,-0.01375,-0.016875,-0.018125,-0.016875,-0.0175,-0.02125,-0.02,-0.01125,-0.0025,0.003125,0.00875,0.018125,0.0275,0.028125,0.0175,0.0075,0.006875,0.01,0.013125,0.018125,0.01875,0.0125,0.00125,-0.010625,-0.021875,-0.0325,-0.040625,-0.03625,-0.02125,-0.005625,-0.000625,-0.00625,-0.01,-0.00875,-0.015625,-0.02125,-0.015,-0.01125,-0.013125,-0.01125,-0.005,-0.003125,-0.00625,-0.008125,-0.009375,-0.0125,-0.01375,-0.013125,-0.015,-0.01875,-0.018125,-0.01625,-0.015625,-0.013125,-0.011875,-0.019375,-0.031875,-0.041875,-0.041875,-0.025,-0.004375,-0.000625,-0.00375,-0.00125,0.003125,0.01,0.014375,0.0125,0.00375,-0.005,-0.009375,-0.013125,-0.023125,-0.035625,-0.034375,-0.021875,-0.013125,-0.0125,-0.013125,-0.009375,-0.005625,-0.001875,0.00625,0.01375,0.019375,0.021875,0.015625,0.005,0,-0.000625,-0.00125,-0.004375,-0.004375,0.00875,0.0375,0.078125,0.11812,0.15063,0.18125,0.21438,0.23813,0.24875,0.25562,0.26125,0.27,0.2875,0.30625,0.31625,0.33125,0.36562,0.40437,0.43062,0.44312,0.44375,0.435,0.4225,0.405,0.37062,0.3225,0.2725,0.20813,0.12687,0.065625,0.0525,0.055625,0.03,-0.01625,-0.05875,-0.091875,-0.1125,-0.13625,-0.18812,-0.25688,-0.31438,-0.36062,-0.43688,-0.5575,-0.6625,-0.70813,-0.70188,-0.67188,-0.67625,-0.72062,-0.745,-0.73125,-0.7075,-0.68812,-0.66,-0.6375,-0.6325,-0.62562,-0.62625,-0.64563,-0.66187,-0.6725,-0.68312,-0.68625,-0.69625,-0.71125,-0.70562,-0.67125,-0.63687,-0.6225,-0.60625,-0.57063,-0.5375,-0.51313,-0.47875,-0.43812,-0.39937,-0.36062,-0.32062,-0.28563,-0.25375,-0.22,-0.18625,-0.15687,-0.13437,-0.11937,-0.11,-0.10562,-0.09875,-0.08875,-0.074375,-0.05625,-0.041875,-0.034375,-0.0275,-0.021875,-0.02,-0.01625,-0.01,-0.00125,0.0075,0.014375,0.015,0.010625,0.003125,-0.00875,-0.020625,-0.024375,-0.02,-0.0125,-0.0075,-0.01125,-0.018125,-0.02,-0.019375,-0.01375,-0.0025,0.0125,0.02625,0.03375,0.035,0.036875,0.044375,0.05375,0.05875,0.056875,0.04875,0.03375,0.0175,-0.001875,-0.025625,-0.03375,-0.013125,0.01625,0.0225,0.018125,0.021875,0.026875,0.025625,0.023125,0.024375,0.024375,0.021875,0.02125,0.02125,0.021875,0.0225,0.023125,0.0275,0.03125,0.030625,0.03,0.029375,0.02875,0.030625,0.030625,0.025625,0.02,0.014375,0.010625,0.0075,0.003125,0.0025,0.008125,0.015625,0.0275,0.0375,0.040625,0.038125,0.03375,0.028125,0.028125,0.035625,0.04,0.038125,0.03875,0.038125,0.028125,0.01375,0.00125,-0.005,0.000625,0.01875,0.0325,0.03,0.02125,0.018125,0.016875,0.016875,0.023125,0.02875,0.0275,0.023125,0.02375,0.028125,0.035,0.040625,0.04125,0.040625,0.039375,0.0375,0.03875,0.036875,0.031875,0.02625,0.02625,0.02625,0.01625,0.01,0.0125,0.0175,0.020625,0.02625,0.03625,0.040625,0.04125,0.043125,0.03875,0.0275,0.01375,-0.00375,-0.016875,-0.01125,0.01125,0.0175,0.0125,0.025,0.04,0.043125,0.04,0.039375,0.039375,0.0375,0.03625,0.03375,0.03125,0.031875,0.03125,0.03,0.0325,0.035,0.035,0.0325,0.0275,0.021875,0.01625,0.014375,0.02,0.02625,0.02875,0.028125,0.025625,0.025,0.02375,0.019375,0.019375,0.019375,0.016875,0.01625,0.020625,0.023125,0.023125,0.028125,0.033125,0.03375,0.033125,0.030625,0.02375,0.00875,-0.004375,-0.005625,-0.001875,0.010625,0.029375,0.035625,0.03125,0.025,0.01875,0.013125,0.01125,0.01,0.009375,0.014375,0.02625,0.035625,0.036875,0.0325,0.02625,0.018125,0.013125,0.008125,0.00375,0.009375,0.02,0.02125,0.01625,0.014375,0.013125,0.013125,0.0175,0.01625,0.014375,0.02125,0.024375,0.01375,0.0025,-0.006875,-0.01875,-0.015,0.0075,0.01625,0.001875,-0.008125,-0.013125,-0.024375,-0.03125,-0.033125,-0.03125,-0.02,-0.009375,-0.0125,-0.01875,-0.018125,-0.0125,-0.001875,0.00625,0.005625,0.003125,0.00625,0.00875,0.00625,0.0025,-0.003125,-0.006875,-0.001875,0.005625,0.00625,0.01125,0.025,0.030625,0.021875,0.013125,0.0075,-0.00125,-0.00375,0.001875,0.005,0.01125,0.026875,0.040625,0.04125,0.03625,0.035625,0.035625,0.03375,0.03375,0.029375,0.02125,0.016875,0.015625,0.013125,0.00875,0.01125,0.021875,0.028125,0.0275,0.02875,0.030625,0.031875,0.03375,0.03375,0.034375,0.038125,0.043125,0.045,0.045,0.045,0.040625,0.03625,0.034375,0.0325,0.033125,0.035625,0.034375,0.035,0.034375,0.03,0.028125,0.030625,0.035625,0.04125,0.044375,0.04375,0.040625,0.040625,0.044375,0.044375,0.04375,0.046875,0.046875,0.04375,0.04125,0.038125,0.0375,0.05,0.071875,0.07875,0.074375,0.073125,0.071875,0.066875,0.059375,0.05,0.036875,0.025625,0.021875,0.021875,0.024375,0.03125,0.033125,0.028125,0.028125,0.03125,0.0275,0.019375,0.01375,0.01375,0.02,0.02625,0.028125,0.028125,0.030625,0.03625,0.04,0.036875,0.03125,0.03125,0.038125,0.036875,0.028125,0.028125,0.04125,0.056875,0.064375,0.05875,0.04875,0.040625,0.04,0.050625,0.058125,0.0575,0.055,0.0525,0.049375,0.050625,0.04875,0.040625,0.03,0.024375,0.025625,0.036875,0.05875,0.071875,0.063125,0.055,0.0575,0.05625,0.0525,0.05125,0.05125,0.0525,0.055,0.06,0.061875,0.05625,0.04625,0.0325,0.015,0.0075,0.0175,0.0325,0.03375,0.0325,0.044375,0.053125,0.049375,0.043125,0.043125,0.049375,0.053125,0.050625,0.04875,0.054375,0.05875,0.05375,0.045625,0.040625,0.0375,0.034375,0.034375,0.0375,0.039375,0.041875,0.04875,0.055,0.059375,0.06375,0.06125,0.055,0.04875,0.03875,0.0275,0.02375,0.025,0.03375,0.04875,0.054375,0.046875,0.034375,0.0325,0.0425,0.0525,0.056875,0.05625,0.0525,0.0475,0.04,0.03,0.019375,0.009375,0.006875,0.010625,0.01125,0.011875,0.018125,0.025625,0.03,0.02875,0.02375,0.02375,0.030625,0.039375,0.044375,0.041875,0.0425,0.04875,0.05,0.0475,0.04875,0.04875,0.045625,0.043125,0.0375,0.028125,0.024375,0.02375,0.021875,0.02375,0.025625,0.02375,0.01875,0.015,0.015,0.018125,0.023125,0.03125,0.03625,0.0375,0.0375,0.036875,0.03625,0.03375,0.0275,0.0225,0.025,0.03625,0.045,0.039375,0.033125,0.03,0.02375,0.0175,0.015,0.01125,0.009375,0.01625,0.02375,0.025625,0.026875,0.0275,0.024375,0.028125,0.03875,0.044375,0.039375,0.0325,0.025,0.01625,0.010625,0.00625,-0.00375,-0.00875,0.001875,0.011875,0.0075,0.004375,0.006875,0.010625,0.011875,0.015,0.02375,0.02875,0.02625,0.026875,0.034375,0.03875,0.03375,0.025,0.015,0.004375,0,0.005,0.009375,0.013125,0.01875,0.020625,0.019375,0.01875,0.016875,0.014375,0.016875,0.024375,0.028125,0.024375,0.019375,0.0175,0.01375,0.00875,0.009375,0.01125,0.00625,0.006875,0.01375,0.02,0.028125,0.035,0.039375,0.04125,0.03625,0.02875,0.020625,0.014375,0.014375,0.01875,0.021875,0.02,0.01875,0.02375,0.03,0.036875,0.045625,0.055625,0.06375,0.073125,0.076875,0.065,0.04125,0.018125,-0.003125,-0.015625,-0.01625,-0.0075,0.000625,0.00875,0.020625,0.026875,0.0275,0.026875,0.023125,0.02,0.01875,0.02,0.020625,0.02125,0.023125,0.024375,0.02625,0.02875,0.029375,0.034375,0.045,0.053125,0.055625,0.055,0.05375,0.05,0.04125,0.0325,0.030625,0.03375,0.040625,0.0525,0.063125,0.070625,0.08125,0.09125,0.093125,0.090625,0.09,0.094375,0.0975,0.09375,0.09125,0.095625,0.105,0.11438,0.11563,0.11313,0.1175,0.12687,0.13562,0.1375,0.12937,0.11688,0.11125,0.115,0.11438,0.10625,0.1,0.0975,0.095,0.0925,0.085625,0.07625,0.071875,0.07125,0.06375,0.04875,0.039375,0.0375,0.035625,0.029375,0.024375,0.02125,0.015625,0.013125,0.015625,0.01625,0.01625,0.01625,0.01625,0.013125,0.0075,-0.00125,-0.01,-0.015,-0.01625,-0.01125,0.001875,0.015,0.021875,0.020625,0.01875,0.02,0.018125,0.011875,0.00625,0.006875,0.009375,0.003125,-0.013125,-0.0275,-0.0275,-0.015625,-0.018125,-0.03125,-0.026875,-0.005625,0.005,0.0025,0.0075,0.013125,0.009375,0.0025,0.000625,0.0025,0,-0.008125,-0.015625,-0.015625,-0.01,-0.0025,0.00125,-0.001875,-0.0025,0.00125,-0.00125,-0.015,-0.026875,-0.026875,-0.019375,-0.00875,-0.0025,-0.001875,-0.001875,-0.00375,-0.01125,-0.0125,-0.005625,-0.00125,-0.000625,0.00375,0.001875,-0.013125,-0.028125,-0.026875,-0.01,0.004375,0.005625,0.0025,0.0025,0.001875,-0.000625,-0.001875,0.000625,0.008125,0.01625,0.010625,0,-0.005,-0.008125,-0.01125,-0.009375,-0.001875,0.005,0.0075,0.005625,0.005,0.0125,0.02875,0.05,0.07125,0.099375,0.13125,0.15687,0.17688,0.19875,0.21937,0.23563,0.25375,0.265,0.26937,0.28563,0.29875,0.29437,0.29063,0.305,0.34375,0.39875,0.43375,0.43562,0.42688,0.41437,0.39437,0.36625,0.325,0.2775,0.22187,0.15188,0.09125,0.068125,0.071875,0.05125,-0.005,-0.06,-0.095625,-0.11313,-0.12437,-0.15438,-0.2175,-0.2825,-0.33,-0.39625,-0.50938,-0.61938,-0.67563,-0.69375,-0.67937,-0.66812,-0.70125,-0.75125,-0.7675,-0.74,-0.69625,-0.6525,-0.61875,-0.60688,-0.59625,-0.5925,-0.61687,-0.64187,-0.64875,-0.65875,-0.67063,-0.67625,-0.685,-0.68812,-0.66438,-0.62562,-0.60313,-0.59125,-0.565,-0.53312,-0.50375,-0.46437,-0.41375,-0.3675,-0.33063,-0.30062,-0.28063,-0.27125,-0.26312,-0.245,-0.20875,-0.16062,-0.12375,-0.105,-0.08875,-0.0725,-0.0625,-0.058125,-0.05375,-0.04625,-0.039375,-0.030625,-0.018125,-0.008125,-0.005625,-0.009375,-0.016875,-0.02125,-0.02125,-0.019375,-0.015,-0.005,0.008125,0.0125,0.005,0.000625,0.00125,0.000625,-0.001875,-0.00375,0.00375,0.016875,0.02375,0.02375,0.0225,0.02375,0.0225,0.014375,0.006875,0.008125,0.015625,0.029375,0.044375,0.050625,0.049375,0.04625,0.043125,0.03375,0.02,0.0075,0.005,0.01125,0.009375,0.0075,0.01625,0.020625,0.016875,0.0175,0.025,0.03,0.02875,0.028125,0.03,0.03125,0.024375,0.011875,0.001875,0,0.005,0.010625,0.0175,0.025,0.033125,0.04375,0.048125,0.046875,0.045625,0.039375,0.02875,0.02375,0.02875,0.038125,0.04625,0.044375,0.036875,0.034375,0.0325,0.02375,0.015625,0.018125,0.02375,0.028125,0.03125,0.03125,0.030625,0.034375,0.040625,0.040625,0.033125,0.021875,0.01375,0.0075,0.0075,0.0125,0.015625,0.020625,0.025625,0.025625,0.0225,0.02,0.016875,0.011875,0.0075,0.0125,0.0175,0.018125,0.021875,0.02875,0.031875,0.03,0.02625,0.02375,0.023125,0.021875,0.01875,0.015,0.0125,0.014375,0.018125,0.02,0.018125,0.01875,0.025625,0.0325,0.034375,0.034375,0.035,0.03,0.020625,0.014375,0.015,0.026875,0.039375,0.04375,0.040625,0.033125,0.020625,0.005,-0.01,-0.01,0.0075,0.02375,0.025,0.023125,0.024375,0.028125,0.03,0.0275,0.02625,0.025625,0.02375,0.025625,0.03,0.034375,0.036875,0.035,0.02875,0.021875,0.0175,0.01625,0.013125,0.0075,0.000625,-0.008125,-0.008125,0.00125,0.0125,0.02375,0.03375,0.03875,0.040625,0.0425,0.036875,0.02,0.0025,-0.006875,-0.00875,-0.005,0.001875,0.000625,-0.0025,0.0075,0.015625,0.01625,0.015,0.0125,0.01125,0.016875,0.024375,0.030625,0.031875,0.02625,0.021875,0.0225,0.018125,0.009375,0,-0.00875,-0.0125,-0.006875,0.004375,0.0125,0.0175,0.021875,0.025625,0.025,0.02125,0.015625,0.0075,0.0025,-0.00375,-0.013125,-0.018125,-0.02,-0.020625,-0.01375,-0.005,0,0.000625,-0.0025,-0.005625,-0.01,-0.018125,-0.02875,-0.036875,-0.033125,-0.008125,0.01375,0.01,0.000625,-0.00125,-0.00875,-0.021875,-0.029375,-0.029375,-0.029375,-0.024375,-0.01625,-0.009375,-0.0025,0.004375,0.006875,0.0075,0.00625,0.003125,0,-0.009375,-0.021875,-0.025625,-0.015625,-0.000625,0.00375,-0.0025,-0.005625,-0.00375,-0.00625,-0.010625,-0.01125,-0.00875,0.001875,0.01875,0.029375,0.0275,0.02,0.015625,0.014375,0.01625,0.019375,0.019375,0.019375,0.019375,0.02,0.02125,0.02125,0.020625,0.020625,0.024375,0.026875,0.0275,0.0325,0.03625,0.03375,0.033125,0.036875,0.038125,0.036875,0.036875,0.0375,0.04125,0.043125,0.039375,0.0375,0.03625,0.034375,0.03125,0.0275,0.02375,0.025,0.03125,0.03625,0.03625,0.034375,0.03625,0.039375,0.04125,0.044375,0.048125,0.046875,0.044375,0.044375,0.045,0.041875,0.0375,0.04,0.04625,0.04625,0.040625,0.034375,0.030625,0.03125,0.034375,0.04125,0.049375,0.051875,0.051875,0.055,0.05875,0.053125,0.03625,0.02,0.005625,-0.005,0.000625,0.025,0.0475,0.05,0.04875,0.04875,0.043125,0.03875,0.040625,0.0425,0.040625,0.033125,0.025,0.0225,0.0275,0.029375,0.025625,0.0275,0.03875,0.04875,0.04875,0.0425,0.036875,0.03375,0.0375,0.048125,0.055,0.053125,0.050625,0.05,0.044375,0.03875,0.038125,0.040625,0.04875,0.05875,0.060625,0.056875,0.05,0.041875,0.036875,0.035,0.0325,0.0325,0.040625,0.0475,0.05,0.054375,0.06125,0.06625,0.065625,0.063125,0.059375,0.05375,0.050625,0.0475,0.04125,0.03375,0.03125,0.035625,0.041875,0.044375,0.044375,0.046875,0.045625,0.043125,0.0425,0.04,0.035,0.030625,0.02625,0.03,0.03875,0.044375,0.048125,0.053125,0.0525,0.049375,0.046875,0.0425,0.0375,0.04,0.04875,0.051875,0.05,0.046875,0.045625,0.044375,0.039375,0.034375,0.034375,0.036875,0.035,0.034375,0.04,0.044375,0.041875,0.0375,0.03625,0.03625,0.036875,0.03625,0.03375,0.035,0.041875,0.045625,0.04375,0.041875,0.0425,0.043125,0.048125,0.053125,0.0475,0.035,0.026875,0.014375,-0.001875,-0.005625,0.00375,0.0125,0.025625,0.040625,0.03875,0.03125,0.038125,0.04375,0.038125,0.035625,0.0375,0.035,0.030625,0.025625,0.0175,0.013125,0.016875,0.0225,0.025,0.02375,0.02375,0.02625,0.0275,0.028125,0.0275,0.025625,0.025625,0.025625,0.0225,0.02,0.018125,0.015625,0.015625,0.0175,0.018125,0.01875,0.020625,0.023125,0.025625,0.025,0.02375,0.021875,0.019375,0.015625,0.0125,0.0125,0.011875,0.009375,0.010625,0.01875,0.025625,0.028125,0.03125,0.0275,0.01875,0.015,0.013125,0.01125,0.01125,0.013125,0.0125,0.01125,0.01375,0.016875,0.01875,0.02,0.019375,0.018125,0.01875,0.018125,0.014375,0.015,0.0175,0.0175,0.01875,0.02375,0.02875,0.034375,0.035,0.02875,0.02125,0.015625,0.009375,0.0025,-0.006875,-0.011875,-0.005,0.00625,0.009375,0.008125,0.0075,0.005,-0.001875,-0.00375,0.00375,0.011875,0.02,0.0275,0.03125,0.02875,0.020625,0.00875,-0.000625,-0.0025,0.00375,0.0125,0.018125,0.0175,0.01375,0.015,0.015625,0.014375,0.0175,0.025,0.031875,0.03375,0.0325,0.0325,0.035625,0.041875,0.036875,0.0225,0.01375,0.0075,-0.001875,-0.014375,-0.02625,-0.025625,-0.00625,0.01625,0.019375,0.008125,0,-0.004375,-0.005625,-0.00125,0.005625,0.014375,0.02125,0.026875,0.03,0.03,0.031875,0.033125,0.035625,0.0425,0.04375,0.036875,0.03625,0.039375,0.03625,0.030625,0.0275,0.024375,0.0225,0.030625,0.046875,0.054375,0.050625,0.051875,0.06,0.065,0.068125,0.070625,0.07,0.070625,0.07125,0.070625,0.075625,0.08875,0.10187,0.10375,0.096875,0.098125,0.105,0.10875,0.10938,0.11188,0.11937,0.12687,0.125,0.1175,0.11625,0.1225,0.12,0.10375,0.09,0.090625,0.095,0.093125,0.095,0.10063,0.10375,0.10063,0.090625,0.075625,0.060625,0.04875,0.038125,0.03,0.025,0.01625,0.004375,-0.00375,-0.009375,-0.014375,-0.01625,-0.014375,-0.00875,-0.001875,0,-0.005,-0.010625,-0.01625,-0.020625,-0.0175,-0.00875,-0.00375,-0.000625,0.005,0.004375,-0.00375,-0.0075,-0.001875,0.008125,0.01375,0.01125,0.004375,-0.005625,-0.014375,-0.01875,-0.020625,-0.01375,0.0075,0.02125,0.014375,0.00375,-0.0025,-0.010625,-0.0175,-0.019375,-0.023125,-0.02625,-0.024375,-0.018125,-0.011875,-0.0125,-0.014375,-0.009375,-0.004375,-0.00625,-0.0075,-0.003125,0.00125,0.001875,0.000625,-0.000625,-0.0075,-0.018125,-0.020625,-0.021875,-0.030625,-0.03625,-0.029375,-0.016875,-0.01,-0.01125,-0.011875,-0.001875,0.010625,0.014375,0.0075,0.000625,-0.001875,-0.0025,0,-0.000625,-0.006875,-0.01625,-0.0275,-0.03,-0.0175,-0.00625,-0.005,-0.01,-0.015625,-0.015625,-0.011875,-0.00625,0.001875,0.0125,0.0125,0.008125,0.00625,-0.000625,-0.009375,-0.01125,-0.003125,0.00875,0.0275,0.044375,0.055,0.0775,0.11125,0.13062,0.14563,0.17938,0.21438,0.23312,0.2475,0.26562,0.28813,0.31125,0.32438,0.33063,0.34563,0.36688,0.38875,0.40813,0.425,0.435,0.42562,0.40687,0.39062,0.3675,0.3325,0.28375,0.21937,0.1475,0.098125,0.089375,0.076875,0.0225,-0.048125,-0.10187,-0.12125,-0.13062,-0.19312,-0.3125,-0.40875,-0.465,-0.54563,-0.64625,-0.72375,-0.78,-0.79875,-0.78687,-0.82375,-0.91125,-0.95,-0.9125,-0.85,-0.80375,-0.77875,-0.77125,-0.77312,-0.77438,-0.785,-0.78938,-0.76625,-0.75,-0.7575,-0.76875,-0.78687,-0.79875,-0.77563,-0.7375,-0.70937,-0.6825,-0.65,-0.61875,-0.58625,-0.54688,-0.49938,-0.44812,-0.39187,-0.33937,-0.30312,-0.27813,-0.2525,-0.22437,-0.19187,-0.15063,-0.10812,-0.078125,-0.06,-0.05,-0.046875,-0.04625,-0.046875,-0.053125,-0.05125,-0.03125,-0.0075,0.00125,-0.001875,0,0.00625,0.005,0.003125,0.005,-0.000625,-0.00875,-0.011875,-0.01125,-0.011875,-0.0175,-0.02125,-0.02125,-0.013125,-0.001875,-0.00125,-0.001875,0.011875,0.0225,0.014375,0.0125,0.028125,0.0375,0.0325,0.025,0.019375,0.01375,0.006875,0.001875,0.00875,0.028125,0.036875,0.03125,0.036875,0.04375,0.035,0.023125,0.01875,0.01875,0.018125,0.0125,0.010625,0.01875,0.0325,0.038125,0.03,0.025625,0.03125,0.035,0.03125,0.0325,0.041875,0.04875,0.0425,0.028125,0.02125,0.02,0.02125,0.0275,0.03,0.0325,0.0425,0.04875,0.04625,0.041875,0.0325,0.02,0.01375,0.015,0.02,0.03625,0.055,0.059375,0.053125,0.048125,0.043125,0.035625,0.03,0.031875,0.045,0.05875,0.06,0.060625,0.058125,0.044375,0.02625,0.00875,-0.004375,0.0025,0.030625,0.049375,0.0475,0.045625,0.045,0.041875,0.043125,0.044375,0.038125,0.03875,0.05,0.051875,0.040625,0.035625,0.038125,0.038125,0.04,0.046875,0.053125,0.054375,0.053125,0.050625,0.044375,0.04,0.0375,0.03625,0.039375,0.045625,0.050625,0.04875,0.0425,0.039375,0.041875,0.046875,0.05125,0.05375,0.058125,0.06125,0.064375,0.06875,0.07625,0.08125,0.07625,0.064375,0.053125,0.038125,0.02125,0.0175,0.024375,0.03125,0.04375,0.055,0.051875,0.045,0.04375,0.043125,0.031875,0.028125,0.051875,0.0725,0.063125,0.046875,0.041875,0.040625,0.040625,0.0425,0.043125,0.045,0.053125,0.06,0.059375,0.059375,0.0675,0.07,0.06125,0.0525,0.046875,0.03875,0.034375,0.039375,0.0475,0.055,0.060625,0.063125,0.061875,0.053125,0.044375,0.0525,0.06625,0.069375,0.0675,0.06625,0.06375,0.063125,0.061875,0.05625,0.048125,0.048125,0.049375,0.040625,0.035625,0.045,0.06375,0.08375,0.0925,0.085625,0.073125,0.061875,0.0575,0.05375,0.036875,0.024375,0.04,0.0575,0.058125,0.058125,0.059375,0.059375,0.05625,0.049375,0.040625,0.0375,0.0425,0.04875,0.051875,0.05,0.0425,0.035,0.026875,0.024375,0.028125,0.02625,0.021875,0.02625,0.038125,0.046875,0.05,0.0525,0.058125,0.065625,0.06375,0.05875,0.06125,0.06125,0.046875,0.03875,0.035625,0.025625,0.0275,0.033125,0.03,0.040625,0.0575,0.06,0.06125,0.063125,0.055625,0.049375,0.05,0.054375,0.05625,0.0475,0.03875,0.030625,0.01375,0.000625,0.00625,0.033125,0.06125,0.0675,0.06,0.05875,0.063125,0.063125,0.05875,0.059375,0.061875,0.063125,0.0625,0.053125,0.0375,0.036875,0.050625,0.049375,0.0425,0.050625,0.056875,0.055625,0.05125,0.04375,0.035625,0.038125,0.051875,0.06875,0.07375,0.07,0.07375,0.081875,0.081875,0.079375,0.0725,0.0575,0.048125,0.043125,0.038125,0.04375,0.058125,0.06625,0.070625,0.066875,0.04875,0.03375,0.026875,0.021875,0.03125,0.06625,0.09625,0.091875,0.07125,0.05875,0.06,0.0575,0.03625,0.0275,0.055625,0.083125,0.085625,0.07625,0.06375,0.059375,0.0575,0.050625,0.039375,0.0325,0.031875,0.028125,0.030625,0.05,0.06625,0.064375,0.05875,0.06375,0.07,0.069375,0.07,0.068125,0.05625,0.053125,0.066875,0.0675,0.054375,0.0525,0.056875,0.063125,0.08125,0.10125,0.099375,0.08125,0.07125,0.07625,0.076875,0.06625,0.059375,0.065625,0.06625,0.045625,0.036875,0.055625,0.0525,0.03125,0.043125,0.070625,0.0875,0.10375,0.10938,0.085,0.064375,0.066875,0.068125,0.06375,0.065625,0.08125,0.099375,0.105,0.09875,0.09,0.085625,0.09375,0.10687,0.11063,0.10875,0.10875,0.09875,0.09,0.090625,0.08,0.065,0.059375,0.055625,0.04875,0.04375,0.043125,0.054375,0.075,0.090625,0.095,0.0925,0.09625,0.09625,0.084375,0.078125,0.0725,0.059375,0.05875,0.075625,0.089375,0.08875,0.079375,0.079375,0.08,0.08125,0.10312,0.12312,0.12812,0.135,0.13,0.10625,0.08,0.05,0.01625,0.015625,0.05375,0.075625,0.073125,0.0725,0.074375,0.07625,0.080625,0.0825,0.076875,0.078125,0.09625,0.10312,0.095625,0.099375,0.09625,0.0925,0.099375,0.09625,0.090625,0.08625,0.0825,0.074375,0.05875,0.06125,0.07125,0.069375,0.076875,0.089375,0.088125,0.086875,0.093125,0.09125,0.08,0.084375,0.09375,0.08,0.064375,0.065,0.061875,0.05875,0.06375,0.058125,0.049375,0.073125,0.1025,0.099375,0.08875,0.085625,0.075625,0.06375,0.056875,0.06125,0.08125,0.083125,0.0575,0.03625,0.02875,0.03375,0.049375,0.075,0.098125,0.0975,0.08625,0.075625,0.065,0.06375,0.0675,0.061875,0.0575,0.0675,0.0825,0.09375,0.089375,0.073125,0.075,0.08375,0.075625,0.075,0.09125,0.1,0.09125,0.07,0.049375,0.035625,0.035625,0.04875,0.06,0.068125,0.076875,0.075,0.061875,0.055,0.056875,0.05875,0.05625,0.051875,0.045,0.04125,0.04875,0.05125,0.046875,0.050625,0.061875,0.066875,0.06625,0.06875,0.075,0.0775,0.076875,0.07125,0.06875,0.081875,0.10312,0.10437,0.089375,0.08375,0.083125,0.070625,0.051875,0.04,0.03125,0.03125,0.046875,0.053125,0.048125,0.045625,0.045625,0.05,0.055625,0.065625,0.07875,0.086875,0.095625,0.1025,0.10562,0.11188,0.11188,0.09875,0.0825,0.066875,0.051875,0.03625,0.031875,0.0525,0.075625,0.081875,0.074375,0.063125,0.056875,0.055625,0.060625,0.06875,0.065625,0.061875,0.071875,0.08625,0.093125,0.090625,0.086875,0.084375,0.074375,0.06375,0.056875,0.050625,0.058125,0.084375,0.10125,0.098125,0.095625,0.10187,0.10437,0.10125,0.10437,0.1075,0.10938,0.11812,0.12687,0.12562,0.1175,0.11438,0.12625,0.14938,0.16937,0.18125,0.18,0.1675,0.15687,0.1475,0.12687,0.10375,0.10938,0.14625,0.17125,0.1825,0.19937,0.2,0.18375,0.17062,0.16687,0.17188,0.18,0.18313,0.18313,0.17438,0.14813,0.12812,0.12437,0.13187,0.14938,0.15188,0.13312,0.11563,0.10063,0.086875,0.079375,0.07625,0.076875,0.08125,0.07875,0.069375,0.065,0.06375,0.056875,0.04625,0.038125,0.030625,0.0225,0.01125,0.0075,0.026875,0.05125,0.053125,0.0475,0.049375,0.053125,0.059375,0.064375,0.059375,0.05625,0.0625,0.064375,0.06,0.058125,0.059375,0.0625,0.073125,0.0825,0.085,0.08375,0.081875,0.074375,0.05625,0.0325,0.014375,0.015625,0.030625,0.033125,0.018125,0.0175,0.03875,0.05625,0.058125,0.059375,0.06125,0.053125,0.036875,0.0175,0.00625,0.01125,0.020625,0.025,0.030625,0.043125,0.050625,0.046875,0.0475,0.06,0.066875,0.06875,0.070625,0.06375,0.048125,0.03625,0.030625,0.029375,0.035,0.048125,0.046875,0.03,0.019375,0.021875,0.029375,0.034375,0.041875,0.0525,0.0575,0.05875,0.060625,0.055625,0.050625,0.0575,0.068125,0.070625,0.061875,0.04875,0.043125,0.04625,0.046875,0.04125,0.04125,0.0475,0.050625,0.059375,0.08,0.1125,0.15063,0.19312,0.22937,0.25375,0.28063,0.30812,0.32438,0.33687,0.34375,0.34625,0.35313,0.355,0.3525,0.3625,0.39375,0.4325,0.46437,0.4875,0.49875,0.4975,0.49062,0.47875,0.45188,0.40625,0.34313,0.2675,0.19375,0.13937,0.12125,0.11875,0.096875,0.048125,-0.005,-0.020625,-0.02125,-0.080625,-0.195,-0.29688,-0.36875,-0.46187,-0.58937,-0.69688,-0.76,-0.76812,-0.7225,-0.71875,-0.79187,-0.84375,-0.82688,-0.78625,-0.75187,-0.71813,-0.70125,-0.70813,-0.71188,-0.7175,-0.72562,-0.71188,-0.69312,-0.68688,-0.68875,-0.69937,-0.71125,-0.70063,-0.66312,-0.62875,-0.60688,-0.57937,-0.54875,-0.51938,-0.47937,-0.425,-0.3675,-0.31312,-0.2725,-0.25062,-0.23938,-0.23187,-0.22,-0.19625,-0.1675,-0.14125,-0.10625,-0.060625,-0.0325,-0.02,-0.006875,0.00375,0.005625,0.00875,0.0175,0.026875,0.035,0.04125,0.044375,0.043125,0.03375,0.02125,0.02,0.030625,0.045,0.055625,0.061875,0.065625,0.073125,0.083125,0.084375,0.07375,0.063125,0.0575,0.05125,0.03625,0.02,0.02125,0.038125,0.04625,0.03875,0.036875,0.048125,0.05875,0.06375,0.06375,0.060625,0.056875,0.053125,0.05,0.04625,0.04125,0.03875,0.039375,0.04125,0.04375,0.048125,0.050625,0.049375,0.04625,0.044375,0.045625,0.054375,0.065625,0.0725,0.07875,0.08625,0.0875,0.085625,0.083125,0.076875,0.066875,0.0575,0.050625,0.040625,0.0325,0.035,0.039375,0.046875,0.061875,0.07375,0.075,0.0725,0.07,0.06625,0.063125,0.06375,0.064375,0.061875,0.061875,0.07,0.07625,0.075,0.071875,0.066875,0.060625,0.05625,0.054375,0.054375,0.059375,0.06625,0.071875,0.07375,0.073125,0.066875,0.058125,0.055,0.063125,0.07875,0.084375,0.078125,0.071875,0.06875,0.06625,0.066875,0.0675,0.066875,0.064375,0.0675,0.07875,0.086875,0.0875,0.085625,0.081875,0.078125,0.07125,0.0575,0.038125,0.0175,0.00625,0.0175,0.03875,0.04875,0.055,0.0675,0.073125,0.071875,0.070625,0.066875,0.061875,0.058125,0.055625,0.055,0.055,0.059375,0.070625,0.0775,0.075625,0.073125,0.073125,0.069375,0.063125,0.061875,0.06375,0.065625,0.070625,0.0725,0.0675,0.063125,0.05875,0.050625,0.0475,0.05375,0.055,0.046875,0.045625,0.059375,0.075,0.076875,0.066875,0.0525,0.03625,0.026875,0.02375,0.0225,0.03,0.050625,0.0675,0.07125,0.069375,0.069375,0.069375,0.06875,0.06625,0.065,0.06625,0.063125,0.054375,0.04375,0.03625,0.0375,0.04125,0.036875,0.03375,0.036875,0.0425,0.048125,0.056875,0.06625,0.0725,0.075625,0.07625,0.0725,0.06375,0.05375,0.05,0.05375,0.050625,0.03875,0.040625,0.055625,0.05375,0.035625,0.024375,0.02,0.01625,0.01875,0.028125,0.0375,0.041875,0.043125,0.041875,0.039375,0.03375,0.02625,0.019375,0.015625,0.015,0.015,0.015,0.020625,0.03,0.029375,0.019375,0.01125,0.00875,0.008125,0.00375,0.001875,0.00375,0.011875,0.023125,0.02375,0.01875,0.016875,0.014375,0.010625,0.00625,0,-0.006875,-0.00375,0.01125,0.023125,0.024375,0.019375,0.013125,0.013125,0.019375,0.026875,0.03125,0.03375,0.035625,0.0375,0.041875,0.04875,0.054375,0.06125,0.063125,0.05125,0.03,0.0125,0.00125,-0.00625,-0.0125,-0.009375,0.00625,0.01125,0.010625,0.0225,0.034375,0.040625,0.04875,0.05125,0.055,0.05875,0.049375,0.03125,0.015,-0.000625,-0.006875,0,0.006875,0.011875,0.03,0.046875,0.045625,0.04125,0.04375,0.046875,0.046875,0.048125,0.05125,0.056875,0.0625,0.06375,0.0625,0.064375,0.06875,0.0675,0.05875,0.045625,0.030625,0.02375,0.026875,0.03625,0.0425,0.044375,0.040625,0.034375,0.026875,0.018125,0.013125,0.020625,0.029375,0.029375,0.028125,0.03125,0.036875,0.041875,0.044375,0.041875,0.034375,0.0275,0.024375,0.024375,0.033125,0.0475,0.055,0.065,0.08,0.0825,0.074375,0.07,0.063125,0.049375,0.030625,0.014375,0.019375,0.04,0.048125,0.0425,0.04,0.039375,0.035625,0.02875,0.03,0.038125,0.04,0.043125,0.04875,0.046875,0.044375,0.05,0.054375,0.055625,0.054375,0.0525,0.05,0.04625,0.041875,0.04,0.048125,0.06875,0.0825,0.078125,0.07,0.065,0.0575,0.050625,0.050625,0.055,0.06,0.0625,0.059375,0.053125,0.045625,0.04,0.044375,0.0575,0.06625,0.065625,0.06375,0.065,0.06625,0.068125,0.0725,0.07125,0.0625,0.058125,0.07,0.094375,0.10812,0.1025,0.085625,0.07375,0.064375,0.04,0.009375,0,0.020625,0.05,0.06375,0.059375,0.0525,0.05375,0.05875,0.060625,0.06375,0.07,0.076875,0.079375,0.0775,0.07,0.0575,0.046875,0.044375,0.04875,0.055,0.060625,0.066875,0.063125,0.050625,0.043125,0.040625,0.045625,0.060625,0.07625,0.083125,0.085,0.081875,0.074375,0.07125,0.071875,0.064375,0.048125,0.038125,0.0475,0.06375,0.069375,0.071875,0.0725,0.069375,0.0675,0.06625,0.05875,0.045625,0.026875,0.008125,0,0.0075,0.02875,0.05625,0.07,0.07,0.07125,0.068125,0.059375,0.054375,0.0425,0.02125,0.010625,0.009375,0.001875,0.000625,0.016875,0.03375,0.041875,0.046875,0.048125,0.046875,0.045,0.0425,0.038125,0.030625,0.02375,0.019375,0.01875,0.023125,0.03125,0.041875,0.05375,0.065625,0.07,0.064375,0.05375,0.0425,0.0275,0.01125,0.00625,0.02125,0.040625,0.04625,0.04375,0.04,0.03375,0.02625,0.021875,0.02,0.020625,0.025625,0.033125,0.036875,0.039375,0.038125,0.029375,0.0175,0.008125,0.009375,0.028125,0.0475,0.051875,0.055,0.0625,0.0675,0.07,0.06625,0.051875,0.03125,0.0075,-0.011875,-0.0175,-0.01,-0.005625,-0.01125,-0.01375,-0.009375,0.000625,0.020625,0.0425,0.05375,0.055625,0.050625,0.04,0.024375,0.005,-0.005,0.004375,0.00875,-0.001875,0.00125,0.018125,0.02375,0.0225,0.025625,0.024375,0.01875,0.015625,0.019375,0.021875,0.0225,0.025625,0.02875,0.026875,0.024375,0.0225,0.024375,0.0275,0.025625,0.021875,0.0225,0.02875,0.040625,0.045,0.04125,0.03875,0.03875,0.035,0.0225,0.0125,0.0175,0.03375,0.039375,0.0325,0.0375,0.056875,0.070625,0.07625,0.078125,0.073125,0.06125,0.04625,0.0325,0.019375,0.016875,0.028125,0.0425,0.04375,0.0375,0.035625,0.04625,0.0675,0.078125,0.073125,0.07,0.075625,0.086875,0.095625,0.10063,0.10875,0.11375,0.11063,0.1025,0.095625,0.0925,0.095625,0.10437,0.11563,0.12937,0.14,0.13625,0.12187,0.115,0.11313,0.10812,0.10938,0.11812,0.12375,0.12375,0.1225,0.12062,0.12062,0.12625,0.13125,0.12625,0.11188,0.09875,0.086875,0.07375,0.059375,0.044375,0.030625,0.020625,0.01375,0.01,0.00875,0.013125,0.0225,0.02875,0.033125,0.0375,0.035625,0.0325,0.026875,0.014375,0.005625,0.01,0.01375,0.011875,0.0175,0.011875,-0.01,-0.025625,-0.031875,-0.0375,-0.03875,-0.035625,-0.0275,-0.01,0.00375,-0.0025,-0.01125,-0.005625,0,-0.005625,-0.015625,-0.016875,-0.0125,-0.010625,-0.01125,-0.00875,-0.00375,-0.005625,-0.011875,-0.014375,-0.01,-0.0025,-0.00125,-0.00875,-0.014375,-0.015625,-0.0175,-0.0175,-0.014375,-0.00625,0.001875,0.005625,0.0075,0.005625,-0.0025,-0.01625,-0.030625,-0.038125,-0.03125,-0.01625,-0.01875,-0.03625,-0.035,-0.015,-0.01,-0.02125,-0.028125,-0.03125,-0.034375,-0.033125,-0.025625,-0.01375,0.00375,0.015625,0.02,0.03,0.036875,0.028125,0.010625,-0.01125,-0.0325,-0.043125,-0.045625,-0.0525,-0.0575,-0.054375,-0.045,-0.03,-0.0175,-0.01125,-0.00875,-0.006875,-0.006875,-0.00875,-0.00625,0.001875,0.008125,0.01875,0.041875,0.075,0.11438,0.14375,0.1625,0.19,0.2175,0.23062,0.23875,0.24688,0.25875,0.2825,0.30938,0.325,0.33313,0.34813,0.375,0.40063,0.4225,0.44312,0.45437,0.45625,0.44,0.39625,0.34,0.27313,0.18688,0.098125,0.048125,0.044375,0.033125,-0.018125,-0.08125,-0.13062,-0.1475,-0.14125,-0.16875,-0.25312,-0.34187,-0.39813,-0.45687,-0.56437,-0.6725,-0.73313,-0.75625,-0.73687,-0.71813,-0.75187,-0.7975,-0.79875,-0.765,-0.73562,-0.71375,-0.705,-0.7225,-0.73062,-0.71125,-0.70937,-0.71875,-0.715,-0.71813,-0.73,-0.75313,-0.78938,-0.8,-0.75813,-0.70125,-0.67125,-0.64938,-0.62,-0.5975,-0.57312,-0.53125,-0.47937,-0.42812,-0.38125,-0.33937,-0.30312,-0.2725,-0.24938,-0.22687,-0.19875,-0.165,-0.12812,-0.09875,-0.08375,-0.074375,-0.06375,-0.0625,-0.065,-0.06125,-0.05625,-0.05,-0.028125,-0.006875,-0.005625,-0.0125,-0.016875,-0.020625,-0.023125,-0.029375,-0.039375,-0.04125,-0.02875,-0.01125,-0.0025,-0.00625,-0.01375,-0.01875,-0.025625,-0.031875,-0.031875,-0.024375,-0.01625,-0.01,0.00375,0.020625,0.021875,0.016875,0.02,0.025625,0.0325,0.03625,0.02625,0.015,0.01625,0.008125,-0.015625,-0.024375,-0.015625,-0.008125,-0.004375,-0.005625,-0.01,-0.011875,-0.01,-0.005625,0.00125,0.008125,0.01,0.00875,0.01,0.011875,0.011875,0.01125,0.00875,0.00625,0.009375,0.015625,0.02,0.028125,0.04125,0.048125,0.0425,0.034375,0.026875,0.016875,0.00875,0.003125,-0.00125,0,0.0075,0.005,0.00875,0.033125,0.05,0.043125,0.0325,0.03,0.02875,0.021875,0.01,0.005625,0.00875,0.006875,-0.003125,-0.005625,0.0025,0.010625,0.011875,0.015625,0.02125,0.02125,0.016875,0.010625,0.0075,0.00875,0.016875,0.025625,0.025625,0.01875,0.01375,0.014375,0.023125,0.033125,0.03125,0.020625,0.014375,0.013125,0.014375,0.01875,0.01875,0.02125,0.02875,0.03375,0.035,0.036875,0.035,0.030625,0.024375,0.019375,0.0175,0.021875,0.03,0.0375,0.045625,0.051875,0.04875,0.041875,0.041875,0.041875,0.03,0.014375,0.014375,0.02125,0.015,0,-0.0175,-0.029375,-0.0175,0.004375,0.015625,0.01875,0.02125,0.020625,0.019375,0.025,0.03,0.025,0.02,0.021875,0.0225,0.01875,0.01875,0.02125,0.025,0.02875,0.02625,0.0225,0.0275,0.033125,0.0275,0.0175,0.00625,-0.000625,0.0025,0.004375,0.000625,0.005625,0.0275,0.04625,0.044375,0.03125,0.023125,0.02,0.02,0.025625,0.033125,0.035,0.028125,0.01375,-0.003125,-0.013125,-0.006875,0.00375,0,-0.004375,0.00875,0.023125,0.019375,0.013125,0.01625,0.01875,0.01625,0.014375,0.014375,0.019375,0.0275,0.0325,0.030625,0.0225,0.0125,-0.00125,-0.01875,-0.030625,-0.028125,-0.02125,-0.024375,-0.026875,-0.025625,-0.02125,-0.008125,0,-0.003125,-0.005625,-0.000625,0.006875,0.0125,0.011875,0.0075,0.005625,0.00125,-0.008125,-0.020625,-0.033125,-0.03625,-0.026875,-0.01875,-0.02,-0.019375,-0.01875,-0.02125,-0.024375,-0.028125,-0.035,-0.040625,-0.03625,-0.02125,-0.013125,-0.0125,-0.009375,-0.014375,-0.031875,-0.04875,-0.05625,-0.044375,-0.01375,0.003125,0.00125,-0.000625,0.00125,0.005625,0.0075,0.004375,-0.00125,-0.0075,-0.01375,-0.023125,-0.03375,-0.033125,-0.0225,-0.011875,-0.00125,0.00875,0.014375,0.02375,0.034375,0.039375,0.040625,0.038125,0.02875,0.015,-0.000625,-0.0075,-0.0025,-0.004375,-0.01625,-0.0125,0.01,0.026875,0.029375,0.025625,0.023125,0.0225,0.0175,0.013125,0.011875,0.010625,0.011875,0.02,0.02375,0.024375,0.03,0.0375,0.036875,0.025625,0.014375,0.01125,0.01625,0.020625,0.015625,0.00625,0.004375,0.0075,0.000625,-0.005,0.008125,0.024375,0.023125,0.018125,0.020625,0.02375,0.03,0.04125,0.04375,0.03375,0.0225,0.018125,0.01375,0.011875,0.0175,0.026875,0.028125,0.028125,0.033125,0.036875,0.033125,0.021875,0.0125,0.010625,0.0125,0.01375,0.01625,0.03,0.048125,0.05375,0.05,0.048125,0.045,0.0325,0.01375,-0.004375,-0.009375,0.00375,0.01125,0.00375,0.00875,0.025625,0.036875,0.043125,0.044375,0.04625,0.0525,0.0575,0.0575,0.053125,0.044375,0.029375,0.015625,0.01,0.016875,0.03,0.033125,0.036875,0.048125,0.051875,0.05,0.048125,0.040625,0.03125,0.02875,0.035,0.044375,0.045,0.040625,0.036875,0.035,0.035,0.04125,0.05375,0.05875,0.05625,0.056875,0.058125,0.05375,0.05,0.04625,0.04375,0.044375,0.04375,0.04125,0.04,0.04,0.041875,0.0425,0.038125,0.034375,0.0375,0.045625,0.0525,0.059375,0.0675,0.068125,0.06125,0.0525,0.044375,0.03875,0.038125,0.03875,0.04,0.044375,0.046875,0.039375,0.020625,-0.0025,-0.010625,0.018125,0.0575,0.05875,0.03875,0.03375,0.03125,0.024375,0.024375,0.02625,0.02625,0.029375,0.04,0.05,0.054375,0.055625,0.055625,0.05375,0.053125,0.054375,0.05125,0.041875,0.03625,0.03125,0.02,0.013125,0.016875,0.02125,0.029375,0.04,0.04375,0.04375,0.0475,0.04875,0.048125,0.055625,0.063125,0.064375,0.063125,0.055625,0.04,0.028125,0.018125,0.0075,0.00625,0.014375,0.01875,0.021875,0.025625,0.024375,0.028125,0.039375,0.0525,0.064375,0.075625,0.0825,0.07875,0.065625,0.044375,0.013125,-0.013125,-0.0125,0.005,0.010625,0.014375,0.03,0.033125,0.02,0.006875,-0.00375,-0.008125,0.005625,0.0275,0.0275,0.018125,0.021875,0.02625,0.02125,0.014375,0.01125,0.013125,0.019375,0.016875,0.004375,-0.001875,0,0.001875,0.006875,0.014375,0.01375,0.014375,0.020625,0.020625,0.011875,0.005625,0.00875,0.0125,0.01125,0.00875,0.00625,0.0075,0.009375,0.01125,0.014375,0.02125,0.035625,0.055,0.06875,0.075,0.076875,0.070625,0.056875,0.034375,0.01125,0.000625,0.00625,0.016875,0.021875,0.02375,0.021875,0.019375,0.025625,0.035625,0.040625,0.0425,0.04625,0.05125,0.058125,0.064375,0.073125,0.0775,0.074375,0.070625,0.065,0.054375,0.046875,0.055,0.065,0.061875,0.058125,0.06,0.059375,0.05875,0.061875,0.0675,0.07625,0.084375,0.090625,0.10063,0.11375,0.12437,0.12875,0.13187,0.13562,0.135,0.125,0.11188,0.10187,0.10063,0.11125,0.1125,0.09375,0.08,0.090625,0.10312,0.10312,0.10312,0.10125,0.095,0.085625,0.07,0.054375,0.0525,0.061875,0.061875,0.050625,0.040625,0.03625,0.0375,0.040625,0.040625,0.04125,0.049375,0.056875,0.0525,0.039375,0.025625,0.015625,0.0075,0.00375,0.00875,0.023125,0.033125,0.03625,0.035,0.02625,0.01375,0.00375,-0.0025,-0.006875,-0.008125,-0.005625,-0.005,-0.0075,-0.005,-0.000625,0.00125,0.00375,0.015,0.0325,0.04375,0.0425,0.026875,0.005625,-0.009375,-0.020625,-0.030625,-0.02875,-0.005625,0.0175,0.0125,-0.00125,-0.00375,-0.0075,-0.010625,-0.006875,-0.001875,0.003125,0.0075,0.010625,0.013125,0.013125,0.010625,0.00625,-0.00125,-0.0125,-0.0225,-0.024375,-0.018125,-0.01875,-0.031875,-0.03625,-0.02875,-0.025,-0.023125,-0.015,-0.0075,-0.005,-0.003125,-0.004375,-0.009375,-0.01125,-0.008125,-0.00125,0.00125,-0.003125,-0.006875,-0.0075,-0.008125,-0.011875,-0.015,-0.00875,0.003125,0.010625,0.01875,0.0275,0.035,0.043125,0.048125,0.05,0.05625,0.070625,0.093125,0.12062,0.1475,0.18063,0.21813,0.24313,0.2525,0.24813,0.23938,0.24125,0.255,0.28,0.31188,0.33687,0.36188,0.39437,0.42063,0.43938,0.44625,0.4375,0.425,0.4025,0.36062,0.30562,0.23625,0.16312,0.10187,0.07,0.073125,0.063125,0.0175,-0.034375,-0.0725,-0.085,-0.095,-0.14563,-0.22187,-0.27875,-0.3225,-0.40375,-0.52563,-0.62938,-0.69312,-0.72,-0.71375,-0.73313,-0.79125,-0.8175,-0.79125,-0.74438,-0.705,-0.67375,-0.65,-0.6425,-0.64062,-0.63813,-0.64687,-0.66125,-0.67688,-0.695,-0.70688,-0.71937,-0.73875,-0.74125,-0.70625,-0.65187,-0.61438,-0.59375,-0.57312,-0.55063,-0.52438,-0.49438,-0.46187,-0.41937,-0.3675,-0.32375,-0.3025,-0.28813,-0.26,-0.21937,-0.18563,-0.16125,-0.13625,-0.11188,-0.09625,-0.0875,-0.0775,-0.065625,-0.05625,-0.04375,-0.03,-0.0225,-0.019375,-0.014375,-0.010625,-0.009375,-0.00625,-0.0025,-0.000625,0.0025,0.005,0.005625,0.005625,0.0025,-0.001875,-0.003125,0.001875,0.00875,0.0075,0.004375,0.0025,0.004375,0.011875,0.02,0.02875,0.034375,0.033125,0.02625,0.0175,0.0075,-0.000625,0,0.00625,0.0075,0.008125,0.01375,0.016875,0.013125,0.010625,0.006875,0.008125,0.01375,0.0175,0.01875,0.020625,0.02375,0.02875,0.034375,0.034375,0.034375,0.040625,0.05125,0.061875,0.0625,0.05125,0.034375,0.016875,-0.0025,-0.023125,-0.03,-0.015625,0.006875,0.020625,0.01875,0.016875,0.025625,0.0325,0.033125,0.03125,0.031875,0.03625,0.036875,0.029375,0.02375,0.023125,0.025625,0.035,0.0425,0.03625,0.0275,0.02375,0.016875,0.01125,0.014375,0.02125,0.025,0.02375,0.02625,0.031875,0.031875,0.031875,0.039375,0.040625,0.03375,0.03,0.0275,0.023125,0.02,0.0175,0.018125,0.023125,0.03625,0.0525,0.06,0.059375,0.055625,0.05,0.04125,0.025625,0.01125,0.011875,0.02,0.014375,0.01,0.018125,0.020625,0.023125,0.035,0.04375,0.04,0.034375,0.03,0.02875,0.03875,0.05375,0.06,0.05625,0.05375,0.045625,0.033125,0.026875,0.025,0.033125,0.055,0.068125,0.05625,0.035625,0.018125,0.0025,-0.009375,-0.01625,-0.013125,-0.001875,0.00875,0.0125,0.01125,0.013125,0.0175,0.0175,0.02125,0.029375,0.031875,0.0325,0.034375,0.031875,0.026875,0.029375,0.038125,0.044375,0.048125,0.049375,0.05,0.0475,0.04125,0.04125,0.050625,0.0575,0.0575,0.051875,0.04,0.023125,0.00625,-0.005625,-0.0025,0.010625,0.014375,0.016875,0.03125,0.03875,0.03625,0.036875,0.041875,0.045625,0.049375,0.051875,0.046875,0.039375,0.028125,0.014375,0.004375,0.001875,0.011875,0.030625,0.04125,0.0375,0.03125,0.029375,0.025625,0.023125,0.025625,0.03375,0.041875,0.045625,0.0475,0.0475,0.043125,0.04125,0.03875,0.03,0.023125,0.01875,0.005,-0.019375,-0.03625,-0.036875,-0.02625,-0.00875,0,-0.005,-0.0025,0.008125,0.009375,0.004375,0.001875,0,-0.003125,-0.0025,0.00125,0.00125,0.000625,0.0025,0.005625,0.0075,0.010625,0.01125,0.00875,0.009375,0.018125,0.029375,0.0325,0.0325,0.036875,0.04375,0.045625,0.04,0.02875,0.016875,0.00875,-0.001875,-0.019375,-0.019375,0.0025,0.010625,-0.000625,-0.0025,0.005625,0.01125,0.018125,0.03,0.043125,0.053125,0.05875,0.06125,0.058125,0.0525,0.050625,0.04875,0.045,0.045625,0.051875,0.061875,0.06875,0.0625,0.05,0.04375,0.046875,0.048125,0.044375,0.045625,0.053125,0.0625,0.07,0.0675,0.05875,0.05,0.035,0.0225,0.031875,0.05125,0.051875,0.045625,0.04625,0.044375,0.04625,0.0575,0.061875,0.05875,0.05,0.03375,0.016875,0.01,0.010625,0.0175,0.035,0.04875,0.04625,0.04375,0.044375,0.046875,0.0525,0.0575,0.06,0.06,0.055,0.04625,0.040625,0.040625,0.04,0.039375,0.0425,0.0475,0.05,0.056875,0.068125,0.069375,0.06125,0.0575,0.055,0.048125,0.043125,0.043125,0.049375,0.06,0.06375,0.05625,0.051875,0.05,0.041875,0.038125,0.048125,0.06,0.065,0.063125,0.06,0.055625,0.05125,0.05,0.048125,0.040625,0.03625,0.045,0.06375,0.08125,0.089375,0.08375,0.068125,0.051875,0.04125,0.03625,0.040625,0.059375,0.071875,0.065625,0.06625,0.073125,0.0675,0.05625,0.0525,0.0525,0.055625,0.0575,0.05625,0.059375,0.0625,0.0625,0.06375,0.070625,0.078125,0.0825,0.085,0.085,0.0775,0.065625,0.05625,0.04625,0.033125,0.026875,0.030625,0.038125,0.04375,0.050625,0.05625,0.055625,0.05375,0.05625,0.0575,0.05875,0.06,0.065625,0.0775,0.085625,0.085625,0.085625,0.085625,0.080625,0.06875,0.055625,0.0525,0.05875,0.06625,0.070625,0.078125,0.0875,0.0925,0.09625,0.1,0.10125,0.096875,0.08875,0.08625,0.09,0.08875,0.08,0.063125,0.03625,0.01125,-0.003125,-0.008125,-0.0025,0.021875,0.051875,0.066875,0.065625,0.055625,0.04625,0.044375,0.050625,0.055,0.053125,0.060625,0.075,0.078125,0.074375,0.074375,0.07125,0.065,0.060625,0.051875,0.03625,0.024375,0.02,0.021875,0.028125,0.03375,0.04125,0.05875,0.078125,0.0875,0.085,0.07375,0.058125,0.04125,0.024375,0.01625,0.020625,0.03625,0.054375,0.054375,0.045,0.043125,0.04375,0.04,0.0375,0.039375,0.040625,0.0425,0.04875,0.054375,0.054375,0.058125,0.061875,0.05875,0.0525,0.043125,0.03,0.019375,0.01875,0.02875,0.048125,0.065625,0.07,0.071875,0.081875,0.091875,0.09875,0.10437,0.10375,0.09125,0.0725,0.054375,0.039375,0.021875,0.01875,0.029375,0.03125,0.031875,0.036875,0.036875,0.036875,0.035625,0.035,0.04375,0.05625,0.06625,0.075,0.07875,0.081875,0.0925,0.11063,0.1225,0.11875,0.10437,0.088125,0.07375,0.0625,0.051875,0.04625,0.0625,0.09375,0.10875,0.10687,0.10562,0.10812,0.11188,0.11313,0.11563,0.12312,0.12875,0.13187,0.13625,0.14438,0.15313,0.15812,0.15812,0.15438,0.15063,0.14688,0.14125,0.13437,0.13312,0.1325,0.12312,0.11063,0.105,0.095625,0.084375,0.085,0.0975,0.11,0.11125,0.10375,0.096875,0.09125,0.085,0.07875,0.073125,0.07625,0.09,0.1025,0.095625,0.080625,0.076875,0.08,0.08,0.0725,0.069375,0.078125,0.073125,0.053125,0.045,0.046875,0.044375,0.044375,0.049375,0.048125,0.0425,0.04375,0.0525,0.058125,0.058125,0.054375,0.05,0.045625,0.03875,0.0275,0.02125,0.0225,0.028125,0.028125,0.02125,0.020625,0.0275,0.029375,0.024375,0.021875,0.025625,0.035625,0.049375,0.0625,0.06875,0.07125,0.06875,0.0575,0.039375,0.01625,-0.005625,-0.015,-0.008125,0.005625,0.019375,0.029375,0.033125,0.031875,0.025625,0.014375,0.01125,0.020625,0.03,0.0325,0.031875,0.02625,0.014375,0.005,0.00125,0.00625,0.021875,0.031875,0.026875,0.023125,0.02625,0.02625,0.028125,0.03625,0.03875,0.0325,0.02625,0.02,0.016875,0.019375,0.025625,0.034375,0.0475,0.0525,0.045,0.039375,0.0375,0.039375,0.051875,0.066875,0.076875,0.0925,0.12375,0.16312,0.19625,0.21875,0.23875,0.2575,0.27125,0.27937,0.28937,0.30875,0.33187,0.34875,0.3625,0.38125,0.405,0.42938,0.44312,0.44312,0.44062,0.43438,0.41563,0.39437,0.3725,0.33875,0.29375,0.235,0.16562,0.11313,0.095,0.0925,0.0625,0.00625,-0.04,-0.06625,-0.078125,-0.085,-0.11,-0.16437,-0.21813,-0.2575,-0.3325,-0.45875,-0.56125,-0.60875,-0.62625,-0.61438,-0.61125,-0.6525,-0.69937,-0.7025,-0.66875,-0.62125,-0.57437,-0.5475,-0.53875,-0.52875,-0.52875,-0.55,-0.57,-0.58437,-0.60813,-0.6225,-0.62813,-0.64438,-0.65063,-0.625,-0.58437,-0.55937,-0.54625,-0.52187,-0.49562,-0.47437,-0.44562,-0.41,-0.37812,-0.3375,-0.28437,-0.24375,-0.22437,-0.20875,-0.19062,-0.16812,-0.13812,-0.11188,-0.095,-0.079375,-0.06625,-0.053125,-0.0375,-0.02625,-0.021875,-0.013125,0.005625,0.0225,0.038125,0.05375,0.0625,0.06375,0.060625,0.05125,0.035625,0.02,0.00875,0.00375,-0.000625,-0.006875,-0.003125,0.010625,0.02,0.0225,0.02625,0.030625,0.0325,0.038125,0.05,0.058125,0.054375,0.045625,0.041875,0.04625,0.046875,0.035625,0.02625,0.026875,0.02625,0.018125,0.0225,0.0375,0.046875,0.049375,0.05125,0.051875,0.0525,0.055,0.058125,0.058125,0.055,0.054375,0.05375,0.049375,0.045,0.0425,0.04125,0.0425,0.043125,0.045625,0.051875,0.05625,0.061875,0.066875,0.065,0.059375,0.051875,0.040625,0.0375,0.051875,0.06375,0.059375,0.0525,0.05375,0.054375,0.05,0.045,0.041875,0.036875,0.0325,0.03875,0.054375,0.060625,0.061875,0.064375,0.056875,0.03875,0.021875,0.015625,0.020625,0.03375,0.048125,0.05625,0.054375,0.0525,0.060625,0.074375,0.08125,0.079375,0.075,0.068125,0.060625,0.0525,0.045,0.045625,0.05,0.041875,0.02125,0.013125,0.029375,0.045,0.044375,0.045,0.05375,0.058125,0.059375,0.0625,0.063125,0.061875,0.059375,0.0525,0.040625,0.039375,0.043125,0.0375,0.033125,0.038125,0.041875,0.041875,0.043125,0.04375,0.045625,0.05,0.05,0.04625,0.044375,0.0475,0.053125,0.061875,0.07125,0.07125,0.06125,0.051875,0.04375,0.031875,0.014375,0.00375,0.01125,0.036875,0.053125,0.04625,0.036875,0.038125,0.050625,0.0725,0.0925,0.099375,0.098125,0.095,0.085,0.066875,0.04125,0.025625,0.036875,0.0525,0.0425,0.019375,0.01,0.0075,0.004375,0.014375,0.028125,0.026875,0.019375,0.016875,0.0175,0.019375,0.023125,0.025625,0.025625,0.0275,0.031875,0.035625,0.039375,0.04125,0.04,0.038125,0.035,0.030625,0.02875,0.0325,0.03875,0.04,0.03375,0.02875,0.031875,0.03875,0.04,0.0325,0.019375,0.005,-0.001875,0.005625,0.014375,0.016875,0.014375,0.00875,0,-0.00375,0.00125,0.010625,0.0175,0.025,0.028125,0.021875,0.0125,0.003125,-0.004375,-0.004375,0.00125,0.005,0.003125,0.0075,0.014375,0.00625,-0.010625,-0.0225,-0.025625,-0.018125,-0.00125,0.0025,-0.01125,-0.02,-0.021875,-0.020625,-0.01375,-0.00125,0.01,0.015625,0.02625,0.04125,0.045,0.038125,0.031875,0.02625,0.0225,0.025,0.025,0.01875,0.021875,0.025625,0.008125,-0.00875,-0.00625,0,-0.000625,0.001875,0.011875,0.021875,0.02375,0.025,0.026875,0.02875,0.036875,0.04875,0.058125,0.06,0.058125,0.0525,0.045,0.041875,0.04125,0.03875,0.03875,0.049375,0.06125,0.064375,0.0625,0.055625,0.048125,0.05,0.055,0.05375,0.055,0.0625,0.06375,0.05875,0.05625,0.059375,0.07375,0.090625,0.091875,0.0825,0.075,0.065,0.046875,0.029375,0.02875,0.0475,0.065,0.06625,0.068125,0.075625,0.0775,0.078125,0.07625,0.06875,0.0575,0.046875,0.04625,0.060625,0.075,0.075625,0.073125,0.078125,0.081875,0.078125,0.0725,0.06875,0.070625,0.071875,0.06875,0.0725,0.0925,0.11812,0.12625,0.12,0.11063,0.10125,0.0925,0.08125,0.06625,0.05875,0.065625,0.0725,0.065,0.05625,0.055,0.060625,0.069375,0.074375,0.073125,0.07125,0.06875,0.064375,0.056875,0.05125,0.05375,0.059375,0.065,0.074375,0.080625,0.076875,0.07,0.07125,0.078125,0.07875,0.0725,0.0675,0.06625,0.07,0.081875,0.089375,0.09125,0.094375,0.094375,0.095625,0.10187,0.10063,0.09125,0.081875,0.075625,0.073125,0.06625,0.050625,0.041875,0.0575,0.078125,0.084375,0.086875,0.090625,0.089375,0.093125,0.10063,0.1,0.093125,0.085,0.07875,0.078125,0.07625,0.07,0.071875,0.081875,0.08125,0.0675,0.06,0.060625,0.0625,0.06875,0.078125,0.08375,0.08625,0.08625,0.083125,0.078125,0.071875,0.06875,0.0725,0.081875,0.084375,0.08,0.081875,0.0875,0.0975,0.11438,0.12812,0.12875,0.12125,0.11,0.0975,0.07875,0.05375,0.0375,0.04125,0.056875,0.06875,0.074375,0.075625,0.070625,0.0625,0.05875,0.06,0.06375,0.061875,0.05125,0.04125,0.039375,0.04125,0.0475,0.056875,0.06625,0.0675,0.0625,0.058125,0.056875,0.0575,0.063125,0.07625,0.089375,0.0975,0.0975,0.089375,0.0775,0.061875,0.04,0.02,0.020625,0.040625,0.058125,0.065625,0.065625,0.061875,0.061875,0.065,0.066875,0.07,0.073125,0.070625,0.0675,0.0725,0.07875,0.0775,0.06875,0.05875,0.048125,0.039375,0.039375,0.043125,0.05,0.060625,0.065625,0.06,0.050625,0.041875,0.033125,0.030625,0.039375,0.048125,0.045,0.03875,0.038125,0.040625,0.04625,0.0575,0.068125,0.07125,0.073125,0.07375,0.073125,0.07375,0.07,0.060625,0.055,0.055625,0.054375,0.05125,0.05375,0.055625,0.056875,0.056875,0.05625,0.05625,0.05875,0.0625,0.05875,0.05125,0.049375,0.05375,0.064375,0.074375,0.073125,0.070625,0.0725,0.07,0.06125,0.060625,0.07125,0.081875,0.089375,0.10375,0.115,0.1125,0.1125,0.11563,0.115,0.11375,0.105,0.0825,0.065,0.063125,0.07,0.089375,0.12437,0.14938,0.1475,0.13937,0.13187,0.11688,0.10562,0.10625,0.11188,0.11313,0.11,0.11313,0.12125,0.1225,0.11812,0.12,0.1275,0.13437,0.13875,0.14188,0.14688,0.1475,0.1375,0.12625,0.1225,0.12,0.115,0.10938,0.11063,0.12062,0.1275,0.12062,0.11,0.10125,0.086875,0.071875,0.069375,0.0725,0.071875,0.0725,0.07125,0.0575,0.05125,0.061875,0.07375,0.079375,0.0875,0.096875,0.095625,0.083125,0.0675,0.054375,0.04625,0.046875,0.0525,0.06125,0.075,0.08,0.06375,0.043125,0.034375,0.025625,0.0125,0.01375,0.035,0.04875,0.038125,0.026875,0.02875,0.03625,0.049375,0.06375,0.06875,0.065625,0.060625,0.058125,0.0575,0.055625,0.05125,0.045625,0.0325,0.02,0.0125,-0.001875,-0.013125,-0.005,0.010625,0.01625,0.014375,0.01625,0.01875,0.016875,0.016875,0.020625,0.024375,0.0275,0.029375,0.02875,0.025,0.019375,0.015625,0.01625,0.02125,0.025,0.025,0.023125,0.019375,0.01875,0.02,0.021875,0.023125,0.021875,0.023125,0.026875,0.030625,0.03375,0.0375,0.038125,0.035625,0.035,0.03625,0.035625,0.03,0.023125,0.02125,0.02375,0.0275,0.034375,0.040625,0.046875,0.05375,0.064375,0.078125,0.09125,0.10812,0.13125,0.1525,0.17438,0.2075,0.24063,0.25688,0.26625,0.27563,0.28625,0.2975,0.30375,0.31688,0.3475,0.37938,0.40187,0.4175,0.42812,0.43438,0.42938,0.415,0.395,0.35938,0.31062,0.25312,0.18188,0.10562,0.05875,0.054375,0.051875,0.009375,-0.05125,-0.09375,-0.11188,-0.11438,-0.12875,-0.185,-0.26312,-0.31562,-0.35063,-0.42938,-0.53812,-0.60062,-0.62,-0.6125,-0.58313,-0.59688,-0.67063,-0.73375,-0.74187,-0.7075,-0.65125,-0.59313,-0.56063,-0.53875,-0.505,-0.49438,-0.51375,-0.52125,-0.51687,-0.52312,-0.53375,-0.55625,-0.59,-0.60188,-0.575,-0.54312,-0.5325,-0.5225,-0.51125,-0.5025,-0.47313,-0.42063,-0.38438,-0.36,-0.3225,-0.28875,-0.26813,-0.23938,-0.205,-0.17438,-0.145,-0.11937,-0.10125,-0.083125,-0.06,-0.04,-0.02625,-0.02,-0.02,-0.01625,-0.010625,-0.005,0.00875,0.025625,0.03375,0.040625,0.0525,0.05875,0.055625,0.0475,0.035,0.02125,0.01125,0.01125,0.024375,0.045625,0.056875,0.054375,0.05125,0.046875,0.04,0.03375,0.02625,0.0225,0.035,0.058125,0.06375,0.053125,0.04875,0.0475,0.041875,0.033125,0.02875,0.03125,0.038125,0.04375,0.046875,0.04625,0.045625,0.04875,0.051875,0.051875,0.055,0.065,0.064375,0.0575,0.05875,0.05875,0.0525,0.045625,0.038125,0.03125,0.03125,0.03875,0.048125,0.054375,0.054375,0.0525,0.051875,0.05125,0.0475,0.041875,0.04125,0.045,0.050625,0.054375,0.054375,0.054375,0.054375,0.05625,0.05625,0.051875,0.049375,0.0525,0.055625,0.054375,0.054375,0.053125,0.053125,0.05625,0.06125,0.064375,0.06625,0.065625,0.061875,0.0575,0.055,0.05375,0.051875,0.0475,0.043125,0.0475,0.054375,0.053125,0.05,0.054375,0.06,0.0575,0.0525,0.048125,0.043125,0.035625,0.02875,0.030625,0.04625,0.058125,0.05375,0.045625,0.044375,0.044375,0.045,0.046875,0.049375,0.05,0.05,0.051875,0.051875,0.051875,0.055625,0.05875,0.060625,0.061875,0.066875,0.076875,0.085,0.085,0.073125,0.054375,0.0325,0.008125,-0.00875,-0.008125,0.010625,0.03875,0.058125,0.058125,0.051875,0.05125,0.04625,0.03875,0.035,0.04,0.055,0.068125,0.069375,0.06375,0.06125,0.065,0.06375,0.04625,0.02625,0.021875,0.030625,0.033125,0.02125,0.015,0.024375,0.036875,0.0525,0.06625,0.066875,0.059375,0.055,0.045625,0.03,0.02375,0.030625,0.02625,0.015,0.016875,0.024375,0.029375,0.03625,0.04,0.034375,0.0275,0.02375,0.02125,0.030625,0.048125,0.058125,0.05625,0.050625,0.0425,0.033125,0.02625,0.020625,0.013125,0.00375,0.005625,0.0225,0.036875,0.036875,0.026875,0.015,0.005625,0.005625,0.008125,0.006875,0.005625,0.00375,0.001875,0.0025,0.001875,0.001875,0.001875,0,-0.00125,0.00125,0.006875,0.0075,0.003125,0.00125,0,-0.005,-0.01375,-0.023125,-0.025625,-0.01625,-0.00375,-0.004375,-0.0125,-0.01625,-0.0175,-0.015625,-0.01125,-0.010625,-0.013125,-0.010625,-0.004375,-0.0025,-0.00375,-0.004375,-0.00625,-0.008125,-0.00875,-0.006875,-0.005,-0.003125,-0.000625,0,-0.001875,0,0.0025,0.0025,0.00375,0.01125,0.013125,0.01125,0.0125,0.01375,0.014375,0.02,0.029375,0.03375,0.031875,0.029375,0.026875,0.02625,0.025,0.02125,0.020625,0.02625,0.031875,0.0325,0.0325,0.030625,0.02875,0.03125,0.03875,0.046875,0.05375,0.0575,0.058125,0.059375,0.060625,0.0575,0.05625,0.061875,0.07375,0.080625,0.07625,0.07125,0.0725,0.074375,0.070625,0.066875,0.06375,0.060625,0.060625,0.055,0.040625,0.03625,0.0475,0.055625,0.063125,0.08,0.0825,0.07,0.06125,0.053125,0.049375,0.0525,0.0575,0.065625,0.07875,0.0875,0.089375,0.091875,0.09875,0.10187,0.1,0.098125,0.0975,0.0925,0.07875,0.063125,0.05125,0.045,0.045625,0.054375,0.0625,0.064375,0.05875,0.0525,0.05875,0.068125,0.06625,0.061875,0.0625,0.0625,0.06375,0.065625,0.06375,0.061875,0.065625,0.070625,0.075625,0.081875,0.085625,0.084375,0.080625,0.07875,0.080625,0.07875,0.079375,0.09,0.091875,0.07375,0.058125,0.05125,0.045,0.05,0.069375,0.08125,0.085,0.088125,0.088125,0.085,0.08,0.073125,0.0675,0.059375,0.05,0.049375,0.06375,0.075,0.071875,0.07,0.071875,0.07,0.070625,0.07375,0.07375,0.069375,0.070625,0.073125,0.071875,0.0675,0.065625,0.065625,0.065,0.0625,0.060625,0.065625,0.075,0.080625,0.08375,0.085625,0.08375,0.081875,0.08,0.0725,0.064375,0.06375,0.06875,0.07125,0.06875,0.06875,0.075625,0.08375,0.084375,0.08375,0.0825,0.0775,0.0725,0.069375,0.065,0.06,0.061875,0.073125,0.07875,0.07375,0.07125,0.073125,0.071875,0.06625,0.0625,0.065,0.06875,0.07125,0.070625,0.0675,0.063125,0.06,0.059375,0.056875,0.05375,0.05625,0.06125,0.0625,0.06125,0.059375,0.059375,0.06125,0.06375,0.06625,0.068125,0.0725,0.076875,0.07875,0.07625,0.069375,0.060625,0.050625,0.044375,0.048125,0.055,0.058125,0.06375,0.07375,0.076875,0.074375,0.070625,0.06375,0.055625,0.049375,0.04125,0.031875,0.035,0.0525,0.06625,0.065625,0.06125,0.056875,0.0525,0.049375,0.043125,0.033125,0.031875,0.044375,0.0575,0.0575,0.05125,0.051875,0.051875,0.04875,0.046875,0.0475,0.045625,0.044375,0.049375,0.060625,0.065625,0.06375,0.063125,0.06125,0.0525,0.04125,0.03375,0.0325,0.03625,0.045625,0.0525,0.049375,0.045625,0.045625,0.045,0.046875,0.061875,0.0725,0.06375,0.05375,0.0525,0.048125,0.0425,0.04375,0.045625,0.04375,0.044375,0.044375,0.045625,0.053125,0.0575,0.051875,0.043125,0.03375,0.023125,0.02,0.025625,0.034375,0.045625,0.0575,0.061875,0.05875,0.055625,0.051875,0.045625,0.0375,0.030625,0.025,0.02125,0.024375,0.02625,0.023125,0.025,0.03125,0.03375,0.036875,0.045,0.05125,0.05,0.049375,0.05375,0.058125,0.06125,0.060625,0.058125,0.06,0.06625,0.068125,0.069375,0.071875,0.0725,0.071875,0.075625,0.08,0.083125,0.085625,0.08875,0.0925,0.095,0.09375,0.095,0.094375,0.09375,0.095625,0.095,0.095,0.095625,0.095,0.0975,0.10063,0.1025,0.10938,0.11812,0.11812,0.11625,0.11812,0.12,0.12187,0.12312,0.12312,0.12375,0.12062,0.115,0.11438,0.11438,0.11063,0.10812,0.105,0.099375,0.0925,0.081875,0.0775,0.0875,0.099375,0.090625,0.075625,0.070625,0.07,0.07,0.071875,0.073125,0.071875,0.07,0.06875,0.066875,0.06875,0.070625,0.065625,0.056875,0.050625,0.046875,0.0425,0.04,0.044375,0.05125,0.055625,0.059375,0.068125,0.07375,0.070625,0.063125,0.058125,0.06125,0.064375,0.050625,0.028125,0.0175,0.023125,0.02875,0.01875,0.006875,0.01625,0.04125,0.05875,0.063125,0.061875,0.056875,0.04625,0.04125,0.04125,0.036875,0.03,0.02375,0.01125,-0.005625,-0.01875,-0.02625,-0.023125,-0.000625,0.023125,0.0325,0.03625,0.039375,0.034375,0.02375,0.011875,0.00375,0.003125,0.01375,0.019375,0.016875,0.016875,0.018125,0.015,0.015,0.02125,0.026875,0.029375,0.030625,0.030625,0.02875,0.021875,0.01375,0.013125,0.015625,0.0175,0.016875,0.013125,0.011875,0.01625,0.02125,0.024375,0.02875,0.030625,0.028125,0.024375,0.020625,0.02125,0.025625,0.031875,0.0375,0.040625,0.04875,0.065,0.086875,0.11625,0.15563,0.18812,0.20375,0.22187,0.24375,0.25375,0.2625,0.27313,0.27937,0.28813,0.29625,0.30375,0.31688,0.34563,0.39,0.42625,0.44188,0.445,0.43625,0.41687,0.39062,0.36312,0.33687,0.29875,0.23375,0.16187,0.11313,0.095625,0.0775,0.034375,-0.018125,-0.063125,-0.08625,-0.095,-0.15125,-0.27375,-0.38625,-0.45687,-0.5425,-0.63875,-0.69,-0.71875,-0.74687,-0.74625,-0.76875,-0.85,-0.90938,-0.88938,-0.82375,-0.76375,-0.72688,-0.71375,-0.72188,-0.73,-0.7375,-0.73938,-0.72313,-0.70063,-0.6825,-0.67188,-0.69,-0.71625,-0.70813,-0.67437,-0.6475,-0.62687,-0.59875,-0.56937,-0.54688,-0.515,-0.46437,-0.40875,-0.35687,-0.31,-0.27125,-0.23375,-0.1925,-0.15937,-0.13562,-0.11313,-0.095625,-0.085625,-0.076875,-0.06625,-0.053125,-0.039375,-0.028125,-0.01875,-0.009375,0.001875,0.013125,0.018125,0.02125,0.0225,0.019375,0.02125,0.033125,0.0525,0.06625,0.060625,0.03625,0.01,-0.003125,-0.001875,0.001875,0.000625,0.003125,0.018125,0.028125,0.02875,0.03125,0.033125,0.034375,0.0375,0.038125,0.0375,0.04125,0.05,0.054375,0.054375,0.058125,0.065,0.068125,0.065625,0.055,0.04,0.02625,0.014375,0.00375,0.006875,0.028125,0.039375,0.03,0.025,0.03125,0.035,0.04,0.050625,0.059375,0.06
