0.52625,0.50813,0.50813,0.51187,0.5075,0.50562,0.50562,0.50062,0.50062,0.50813,0.50938,0.50813,0.5175,0.52812,0.53312,0.53438,0.53312,0.53125,0.53063,0.52938,0.5275,0.52375,0.5175,0.50875,0.5,0.49625,0.50062,0.50375,0.4975,0.49875,0.50875,0.51438,0.51438,0.515,0.51875,0.52125,0.51938,0.51187,0.50625,0.50813,0.51125,0.5075,0.5025,0.50125,0.50438,0.51062,0.51187,0.51313,0.5175,0.51875,0.52,0.52687,0.53375,0.53563,0.53125,0.5225,0.51438,0.50813,0.5,0.49875,0.505,0.51313,0.51687,0.51375,0.50625,0.5,0.49812,0.50375,0.515,0.52125,0.52125,0.52187,0.5275,0.53812,0.55125,0.56312,0.58125,0.61063,0.645,0.67688,0.70187,0.72312,0.74375,0.7575,0.77187,0.78313,0.78687,0.79875,0.82188,0.84437,0.87,0.89937,0.9225,0.94125,0.96063,0.9725,0.96125,0.935,0.91625,0.89187,0.84875,0.79812,0.74063,0.67062,0.61,0.58625,0.58875,0.56937,0.51563,0.46,0.42438,0.40875,0.39875,0.36688,0.31063,0.25312,0.21,0.14,0.015,-0.10437,-0.165,-0.17812,-0.15812,-0.14625,-0.17937,-0.21937,-0.21937,-0.19188,-0.165,-0.13562,-0.10375,-0.08688,-0.0725,-0.06437,-0.08937,-0.12062,-0.13187,-0.145,-0.1625,-0.1675,-0.165,-0.16875,-0.1575,-0.11813,-0.09062,-0.08,-0.05,-0.01313,0.01062,0.03625,0.06938,0.09937,0.12875,0.16687,0.205,0.23562,0.2675,0.30125,0.33375,0.36688,0.39813,0.41812,0.42938,0.4425,0.45625,0.46813,0.47437,0.47625,0.48,0.48688,0.49375,0.50062,0.51187,0.52187,0.525,0.52687,0.53312,0.53687,0.53438,0.53563,0.54,0.5375,0.52938,0.52438,0.52438,0.52375,0.5175,0.5075,0.50313,0.50313,0.50562,0.51187,0.51375,0.50938,0.5075,0.50938,0.51375,0.52063,0.52687,0.53,0.53187,0.53625,0.54438,0.55188,0.55688,0.5575,0.55437,0.5525,0.54625,0.53938,0.53687,0.53875,0.54875,0.55688,0.54812,0.53312,0.52375,0.50938,0.49625,0.50875,0.54375,0.56312,0.55812,0.555,0.55625,0.555,0.55,0.54312,0.53625,0.53438,0.54312,0.55312,0.5575,0.565,0.57188,0.565,0.54937,0.535,0.52938,0.53687,0.55312,0.56437,0.56312,0.55625,0.54875,0.54063,0.53125,0.525,0.52563,0.535,0.54438,0.54563,0.54688,0.55188,0.5575,0.56063,0.565,0.5675,0.55875,0.54625,0.5425,0.54375,0.54375,0.54063,0.54125,0.54063,0.5375,0.53563,0.53312,0.535,0.54312,0.54937,0.55375,0.55375,0.5475,0.54,0.535,0.52938,0.5275,0.53312,0.535,0.52687,0.5225,0.53063,0.54125,0.54312,0.545,0.55063,0.55312,0.55688,0.565,0.57062,0.57062,0.57062,0.56812,0.56437,0.5625,0.55875,0.55,0.54,0.53375,0.53187,0.53438,0.5375,0.53625,0.5375,0.54937,0.56312,0.56812,0.56812,0.56688,0.55625,0.54,0.52938,0.51625,0.4975,0.49875,0.515,0.5175,0.51687,0.53,0.54375,0.54875,0.55625,0.5675,0.56937,0.5675,0.57,0.57062,0.56625,0.56063,0.55188,0.54375,0.54,0.53812,0.53812,0.53687,0.54,0.5475,0.5475,0.53812,0.53375,0.53687,0.535,0.53375,0.54063,0.54937,0.55,0.54625,0.54438,0.54688,0.54625,0.54375,0.54625,0.54438,0.53687,0.52938,0.52312,0.51687,0.51875,0.525,0.52625,0.52812,0.53187,0.53125,0.53187,0.53125,0.52687,0.52625,0.525,0.52125,0.52,0.52375,0.53,0.53125,0.53,0.52687,0.51625,0.50438,0.49688,0.49375,0.49938,0.50875,0.51313,0.51313,0.515,0.52063,0.52125,0.51875,0.51625,0.51625,0.51875,0.5225,0.52687,0.52938,0.52812,0.52687,0.52687,0.52625,0.52063,0.51187,0.50687,0.51062,0.52312,0.53063,0.5325,0.54063,0.54187,0.5275,0.5025,0.47813,0.4675,0.47375,0.485,0.49062,0.50375,0.52375,0.53312,0.53187,0.53563,0.54312,0.54125,0.53625,0.53563,0.53187,0.52625,0.5325,0.54812,0.55125,0.54563,0.54563,0.5475,0.54625,0.54625,0.55,0.5525,0.54812,0.54187,0.54,0.54,0.54,0.54937,0.56,0.56,0.55375,0.555,0.56375,0.57437,0.58,0.57937,0.57563,0.57312,0.56875,0.5625,0.5525,0.5425,0.54063,0.54625,0.54875,0.54312,0.54438,0.55437,0.55937,0.55688,0.555,0.5575,0.55937,0.55937,0.56125,0.56312,0.5625,0.55688,0.55437,0.56125,0.56625,0.57,0.57813,0.58375,0.5875,0.585,0.57688,0.56812,0.555,0.54063,0.53125,0.52875,0.53563,0.55188,0.57188,0.58375,0.57875,0.56188,0.54563,0.54125,0.54187,0.54375,0.54937,0.55937,0.5775,0.59437,0.59562,0.5825,0.56563,0.55375,0.54438,0.53563,0.535,0.55,0.56812,0.56375,0.55688,0.56437,0.56875,0.56812,0.56937,0.56312,0.55,0.54,0.5375,0.54125,0.55188,0.56563,0.57563,0.57813,0.57625,0.57375,0.56875,0.56,0.55063,0.54812,0.54875,0.54875,0.55312,0.55563,0.55563,0.5575,0.55812,0.555,0.55188,0.55125,0.55437,0.55688,0.56,0.56312,0.56063,0.5575,0.55625,0.55875,0.56437,0.56437,0.56188,0.56188,0.56125,0.56125,0.5625,0.56063,0.55688,0.55688,0.55875,0.56063,0.56437,0.5675,0.57813,0.59188,0.595,0.595,0.59813,0.595,0.58563,0.57375,0.55563,0.54,0.54063,0.54937,0.55125,0.54688,0.54375,0.55,0.56375,0.57375,0.57312,0.56563,0.555,0.54312,0.53687,0.53687,0.53375,0.53125,0.54375,0.56437,0.57188,0.56875,0.565,0.55937,0.55563,0.55563,0.55375,0.55188,0.5525,0.55312,0.55688,0.56312,0.56688,0.56937,0.56875,0.56375,0.55812,0.55188,0.54688,0.54187,0.53625,0.53375,0.5375,0.54563,0.55375,0.5575,0.55812,0.55875,0.55188,0.5425,0.5425,0.54625,0.54875,0.54812,0.54187,0.53375,0.5325,0.53438,0.53187,0.53063,0.53438,0.54,0.54375,0.54438,0.54375,0.54375,0.54438,0.54563,0.54063,0.53563,0.53187,0.52938,0.53312,0.54312,0.545,0.53625,0.53,0.53187,0.53625,0.54312,0.55125,0.55688,0.56375,0.56875,0.56375,0.55563,0.55375,0.55437,0.54812,0.53875,0.53312,0.52438,0.51687,0.51563,0.5275,0.55125,0.56688,0.5575,0.54312,0.5425,0.54312,0.53563,0.52625,0.51687,0.50687,0.505,0.51062,0.51125,0.50875,0.51,0.5175,0.52563,0.5225,0.51875,0.52312,0.53,0.53312,0.5375,0.54125,0.54063,0.53687,0.52875,0.52375,0.52375,0.5225,0.51875,0.52312,0.53,0.53375,0.53812,0.54,0.53812,0.535,0.53312,0.535,0.54125,0.54312,0.54,0.535,0.53063,0.53,0.52812,0.52375,0.52,0.52063,0.52625,0.52812,0.5225,0.52187,0.53187,0.53812,0.53438,0.53063,0.53125,0.53687,0.54187,0.53687,0.53125,0.53938,0.55375,0.55688,0.55063,0.545,0.53812,0.525,0.50938,0.49938,0.50125,0.5075,0.51062,0.51875,0.52938,0.53312,0.53187,0.52875,0.52563,0.52375,0.52438,0.52687,0.53125,0.54125,0.55625,0.56625,0.5625,0.55312,0.54875,0.54563,0.53938,0.54,0.55688,0.5725,0.56625,0.55312,0.54937,0.54688,0.54563,0.55,0.5525,0.54812,0.54688,0.55312,0.56,0.56875,0.5775,0.585,0.59313,0.59937,0.60312,0.60625,0.61,0.61125,0.60625,0.60125,0.60312,0.605,0.60063,0.6025,0.61188,0.62437,0.63812,0.645,0.635,0.62062,0.61063,0.60625,0.61438,0.63125,0.63812,0.63812,0.63687,0.6275,0.61313,0.60312,0.59688,0.58813,0.58437,0.58062,0.56812,0.54812,0.52875,0.52,0.52063,0.52375,0.52438,0.515,0.4975,0.48938,0.49438,0.50187,0.50687,0.5075,0.50125,0.49562,0.4925,0.48625,0.48375,0.49312,0.5025,0.50062,0.49938,0.50562,0.51438,0.52187,0.52625,0.52812,0.52625,0.5175,0.51,0.50375,0.49875,0.49875,0.4975,0.49125,0.48562,0.48812,0.5,0.51187,0.51625,0.51438,0.50938,0.49938,0.49125,0.485,0.47937,0.47813,0.48438,0.49312,0.4975,0.49875,0.49938,0.49625,0.4925,0.5,0.51563,0.52438,0.5175,0.50375,0.49625,0.49062,0.47687,0.46313,0.4625,0.47313,0.48938,0.49812,0.5,0.5,0.49875,0.49688,0.49812,0.5,0.49938,0.49625,0.49188,0.49125,0.49625,0.50562,0.51625,0.52063,0.52063,0.52187,0.51875,0.515,0.51563,0.51313,0.50625,0.5025,0.49812,0.49438,0.49438,0.49688,0.50062,0.49562,0.48063,0.46687,0.45813,0.46313,0.48562,0.51062,0.52187,0.52375,0.53563,0.565,0.59625,0.62812,0.65812,0.68,0.69812,0.71813,0.7375,0.75312,0.76562,0.78,0.79688,0.81,0.815,0.82125,0.8425,0.87625,0.905,0.9175,0.91937,0.91625,0.90813,0.89437,0.86688,0.82562,0.78063,0.73,0.66687,0.6,0.555,0.53563,0.50938,0.45813,0.40625,0.37438,0.36438,0.3625,0.33875,0.27813,0.215,0.17812,0.12688,0.015,-0.1,-0.15687,-0.18063,-0.18063,-0.165,-0.17937,-0.22625,-0.25562,-0.23438,-0.18375,-0.13,-0.0925,-0.07625,-0.06063,-0.045,-0.05563,-0.07437,-0.08313,-0.09437,-0.11125,-0.12938,-0.1575,-0.17312,-0.14875,-0.10813,-0.08313,-0.06937,-0.05625,-0.04812,-0.0425,-0.02625,0.00938,0.06875,0.13688,0.18,0.1975,0.21375,0.235,0.26187,0.295,0.32625,0.355,0.38312,0.4075,0.42625,0.445,0.465,0.47625,0.48187,0.48938,0.49125,0.48625,0.48313,0.47875,0.4725,0.47625,0.49188,0.49938,0.49812,0.50062,0.50625,0.51125,0.5125,0.51062,0.51187,0.5125,0.50875,0.50687,0.50938,0.51187,0.51187,0.51187,0.51125,0.51187,0.51125,0.50813,0.50187,0.49125,0.48375,0.48438,0.49875,0.51563,0.51812,0.51438,0.51938,0.52687,0.52875,0.5275,0.52438,0.52125,0.52375,0.52438,0.5225,0.52063,0.5175,0.5175,0.52187,0.52563,0.52687,0.52875,0.535,0.54187,0.545,0.53687,0.52187,0.51,0.50562,0.50375,0.50062,0.50062,0.51375,0.525,0.52625,0.52375,0.525,0.52938,0.53625,0.54563,0.55125,0.55125,0.55125,0.55125,0.54625,0.53563,0.52438,0.51625,0.51875,0.53,0.53063,0.52687,0.535,0.54625,0.54937,0.53625,0.51625,0.50375,0.49062,0.47687,0.48187,0.50562,0.52438,0.52312,0.51375,0.51,0.515,0.525,0.5325,0.53687,0.54063,0.54312,0.54125,0.53875,0.54063,0.54063,0.53187,0.52,0.5175,0.52063,0.51938,0.51625,0.51625,0.51875,0.52,0.52,0.52125,0.52312,0.52312,0.5225,0.5225,0.52,0.5175,0.51062,0.50375,0.5025,0.50313,0.50562,0.51375,0.5225,0.525,0.52125,0.51812,0.51812,0.5225,0.52812,0.53438,0.54187,0.54438,0.54125,0.53625,0.53187,0.52563,0.5175,0.51625,0.52,0.5225,0.52125,0.51687,0.51438,0.5125,0.50938,0.50625,0.50687,0.50875,0.50813,0.50813,0.50938,0.50875,0.50938,0.51187,0.515,0.51938,0.5275,0.53375,0.53312,0.53,0.52687,0.52938,0.53563,0.53625,0.5325,0.52125,0.50625,0.49875,0.4925,0.47937,0.46813,0.47625,0.50375,0.5225,0.52,0.51125,0.50625,0.50625,0.51313,0.51687,0.51563,0.5175,0.52375,0.52938,0.525,0.51,0.49812,0.5025,0.51375,0.51687,0.50875,0.49938,0.4925,0.48875,0.49625,0.50375,0.50687,0.51125,0.51,0.50562,0.50562,0.50687,0.51062,0.51812,0.52438,0.5225,0.51187,0.50062,0.49062,0.4775,0.46063,0.45375,0.4675,0.49375,0.51,0.50313,0.49062,0.48125,0.47,0.45813,0.45437,0.45813,0.46,0.45937,0.46,0.4625,0.4725,0.4825,0.48562,0.48938,0.495,0.49625,0.49562,0.495,0.48875,0.47937,0.47375,0.47313,0.47187,0.47375,0.4825,0.49,0.49125,0.49062,0.49438,0.49938,0.50062,0.5025,0.50562,0.50687,0.50687,0.50875,0.51125,0.51438,0.5175,0.52,0.52375,0.52375,0.5175,0.51125,0.51563,0.53187,0.53938,0.53438,0.53,0.525,0.52063,0.51875,0.51438,0.50875,0.51625,0.53875,0.5525,0.55312,0.55375,0.55375,0.54937,0.54312,0.53625,0.53125,0.53375,0.54,0.545,0.55,0.55,0.54688,0.545,0.54063,0.53312,0.52875,0.53187,0.53812,0.53625,0.5275,0.52187,0.52,0.51625,0.51313,0.5175,0.52938,0.54063,0.54438,0.5425,0.545,0.55188,0.5525,0.54875,0.53875,0.52625,0.51875,0.5175,0.51687,0.5225,0.53625,0.54438,0.54312,0.53875,0.53187,0.52312,0.51625,0.51687,0.52625,0.53812,0.54563,0.54688,0.54375,0.53687,0.52812,0.5225,0.5225,0.52375,0.52625,0.53438,0.54688,0.55188,0.54875,0.54688,0.54563,0.54312,0.54312,0.54625,0.54937,0.55437,0.55688,0.555,0.55625,0.55937,0.56,0.55563,0.55188,0.55,0.54438,0.53625,0.5375,0.54875,0.55812,0.55937,0.55937,0.55875,0.55188,0.54438,0.53125,0.51875,0.5275,0.54688,0.54688,0.54187,0.54625,0.54625,0.54625,0.55437,0.56,0.5625,0.565,0.56563,0.56188,0.55563,0.55,0.5425,0.53563,0.54312,0.5525,0.55063,0.54312,0.54312,0.55188,0.55375,0.5475,0.54375,0.54375,0.54063,0.53438,0.535,0.53938,0.54438,0.55125,0.55312,0.54937,0.54688,0.54625,0.54125,0.53687,0.53812,0.54125,0.5475,0.55688,0.56375,0.565,0.56063,0.55563,0.55375,0.55375,0.55125,0.54625,0.54063,0.53563,0.5275,0.52,0.5225,0.52563,0.52187,0.515,0.51062,0.51875,0.53875,0.555,0.56063,0.56,0.55563,0.55125,0.54688,0.54,0.52938,0.51812,0.51812,0.53063,0.53812,0.5325,0.5275,0.53063,0.53125,0.52687,0.52812,0.53687,0.54125,0.53812,0.53875,0.54312,0.54375,0.54,0.53687,0.53687,0.54375,0.54625,0.54438,0.5425,0.54312,0.5475,0.53938,0.51563,0.49938,0.50813,0.52563,0.52125,0.50938,0.51438,0.525,0.53063,0.53063,0.52563,0.5225,0.52375,0.52312,0.52,0.51875,0.52,0.52312,0.525,0.52187,0.51938,0.52438,0.52812,0.52063,0.51812,0.52812,0.53563,0.53187,0.53125,0.54438,0.55875,0.55688,0.54438,0.53375,0.52063,0.50625,0.50313,0.51375,0.52125,0.525,0.52938,0.52438,0.51125,0.50313,0.505,0.51375,0.51938,0.52125,0.52563,0.52625,0.52312,0.52375,0.52438,0.52375,0.5275,0.52875,0.525,0.52125,0.51812,0.51313,0.5075,0.505,0.50813,0.51313,0.51812,0.525,0.52687,0.52,0.51,0.50375,0.50625,0.51125,0.5125,0.51313,0.5125,0.51062,0.5125,0.51563,0.52,0.52812,0.53063,0.52812,0.52812,0.52875,0.52312,0.50938,0.49562,0.4975,0.52,0.53812,0.53875,0.52938,0.52063,0.5175,0.51812,0.51875,0.51812,0.51875,0.52187,0.52125,0.51875,0.52312,0.52687,0.52063,0.51313,0.50813,0.49812,0.49125,0.49438,0.50187,0.50562,0.50813,0.51125,0.51,0.50938,0.51313,0.51938,0.52812,0.535,0.53563,0.5325,0.53687,0.54812,0.55063,0.5475,0.54563,0.53938,0.53375,0.53938,0.5425,0.5325,0.5275,0.54063,0.5525,0.5575,0.56312,0.57188,0.5775,0.575,0.565,0.5525,0.54438,0.53938,0.53375,0.53125,0.53375,0.54187,0.56063,0.5775,0.58437,0.58937,0.58813,0.5875,0.595,0.60312,0.605,0.605,0.60687,0.61,0.61375,0.61625,0.61438,0.61375,0.61563,0.61875,0.61688,0.61438,0.61375,0.61875,0.62687,0.63,0.62375,0.6175,0.6125,0.60625,0.59625,0.58688,0.58,0.58437,0.60063,0.60063,0.58375,0.56875,0.55437,0.54187,0.53,0.5175,0.50813,0.50313,0.5025,0.50813,0.51187,0.5075,0.50313,0.49938,0.49375,0.49,0.48938,0.48875,0.49062,0.49812,0.5075,0.51125,0.51062,0.51375,0.51313,0.50625,0.5075,0.5175,0.5225,0.51812,0.51375,0.50375,0.48875,0.48313,0.48625,0.49188,0.505,0.52125,0.52312,0.51438,0.505,0.49375,0.48313,0.48125,0.48375,0.4875,0.49,0.48812,0.48688,0.49312,0.5025,0.50625,0.5075,0.51187,0.51625,0.51187,0.50125,0.48938,0.47813,0.47063,0.46625,0.46937,0.47563,0.4775,0.47875,0.48375,0.48875,0.49062,0.48875,0.49062,0.49312,0.49375,0.49062,0.48562,0.48187,0.48,0.47687,0.4775,0.48125,0.48562,0.49125,0.49562,0.4975,0.5,0.5075,0.515,0.51687,0.5175,0.515,0.50687,0.49688,0.49062,0.495,0.50625,0.50875,0.49562,0.49062,0.50062,0.5025,0.495,0.49438,0.49875,0.50813,0.52438,0.54812,0.57813,0.615,0.64875,0.67188,0.69562,0.72,0.72625,0.7275,0.73625,0.74688,0.7675,0.79437,0.8075,0.81188,0.83063,0.86375,0.89125,0.90563,0.91313,0.92438,0.93125,0.92125,0.89313,0.8525,0.81,0.76188,0.7025,0.63812,0.59437,0.57937,0.55375,0.49438,0.42563,0.3725,0.35375,0.33813,0.26187,0.15,0.07812,0.035,-0.03938,-0.13562,-0.21062,-0.265,-0.28187,-0.26812,-0.30312,-0.38813,-0.43188,-0.40875,-0.35625,-0.30563,-0.27312,-0.265,-0.26938,-0.27125,-0.275,-0.27,-0.245,-0.22437,-0.22188,-0.235,-0.26625,-0.28687,-0.27063,-0.23062,-0.19375,-0.16687,-0.1375,-0.10688,-0.08188,-0.045,0.005,0.05812,0.11125,0.15687,0.19375,0.2275,0.26062,0.28937,0.32,0.35375,0.38125,0.4025,0.42,0.435,0.44438,0.45813,0.47875,0.48812,0.48313,0.47937,0.48187,0.48812,0.48812,0.4825,0.48688,0.49938,0.51,0.51375,0.51438,0.51938,0.53,0.53625,0.53563,0.52875,0.51812,0.51062,0.505,0.49625,0.485,0.47937,0.49,0.50938,0.51438,0.51187,0.51563,0.52187,0.52687,0.52625,0.52375,0.52625,0.5325,0.53625,0.535,0.53187,0.53125,0.52938,0.5275,0.52625,0.52563,0.52687,0.53,0.52687,0.52063,0.52187,0.52875,0.53438,0.5375,0.5375,0.5325,0.52563,0.52187,0.52187,0.52187,0.52187,0.52312,0.52938,0.54312,0.54563,0.53563,0.5325,0.5375,0.53812,0.535,0.53375,0.53187,0.53,0.5325,0.54438,0.5575,0.56125,0.55812,0.55437,0.54375,0.53125,0.52312,0.52125,0.5275,0.53187,0.52812,0.52938,0.54125,0.545,0.53938,0.54125,0.54812,0.55,0.54875,0.54688,0.54375,0.54,0.53563,0.53063,0.52938,0.53625,0.54187,0.53938,0.53875,0.54,0.54312,0.54875,0.55188,0.55,0.5475,0.54438,0.53812,0.53687,0.53875,0.53625,0.535,0.54312,0.55188,0.55312,0.54563,0.53812,0.53687,0.54375,0.55125,0.55,0.54187,0.53938,0.54563,0.54812,0.54688,0.54812,0.54812,0.54875,0.55375,0.55437,0.54688,0.54438,0.55375,0.55937,0.55,0.53375,0.5225,0.5225,0.5325,0.545,0.5475,0.53938,0.53438,0.53375,0.53125,0.5275,0.5325,0.54688,0.56,0.5625,0.5575,0.555,0.55812,0.56063,0.56,0.56312,0.565,0.56063,0.555,0.55437,0.55563,0.55688,0.55812,0.55625,0.5525,0.5475,0.53938,0.53187,0.53312,0.54812,0.55937,0.56312,0.5675,0.56812,0.5575,0.54125,0.52875,0.52687,0.53938,0.54875,0.54187,0.53687,0.53938,0.53938,0.53938,0.5475,0.56,0.56812,0.56937,0.56937,0.56812,0.565,0.56188,0.56063,0.55875,0.55875,0.56375,0.5675,0.56,0.54375,0.52563,0.51187,0.51313,0.52875,0.54625,0.55063,0.545,0.54375,0.54563,0.54187,0.53375,0.52563,0.51938,0.52,0.52687,0.52875,0.52312,0.52563,0.53312,0.535,0.53125,0.52875,0.53312,0.53812,0.53687,0.53375,0.53438,0.53875,0.53812,0.53625,0.535,0.5325,0.52875,0.52375,0.51938,0.52125,0.53187,0.54688,0.55563,0.55563,0.55125,0.54688,0.5425,0.53187,0.51687,0.51062,0.52438,0.54063,0.53812,0.5275,0.52625,0.525,0.51812,0.5125,0.51438,0.52687,0.54625,0.5525,0.54375,0.54187,0.54625,0.54812,0.54688,0.54187,0.5375,0.5375,0.53438,0.53125,0.53125,0.53125,0.535,0.54187,0.54812,0.55,0.54625,0.545,0.55,0.55563,0.56063,0.56125,0.55625,0.55125,0.54438,0.5325,0.52187,0.51938,0.52375,0.53,0.53375,0.53625,0.54063,0.54438,0.54438,0.54688,0.55437,0.56,0.5575,0.55125,0.545,0.54438,0.54937,0.5525,0.55125,0.54812,0.545,0.54312,0.54125,0.54,0.54625,0.55375,0.55563,0.55625,0.5575,0.55937,0.5575,0.55375,0.54875,0.54312,0.53625,0.5325,0.5275,0.52375,0.52938,0.545,0.55437,0.54812,0.54125,0.5425,0.54625,0.55437,0.56563,0.5625,0.54187,0.52625,0.5225,0.51687,0.51812,0.53812,0.555,0.555,0.55188,0.55125,0.55188,0.56125,0.575,0.58313,0.585,0.58563,0.5875,0.58125,0.56563,0.55188,0.53938,0.53,0.52875,0.535,0.54187,0.54875,0.55625,0.55375,0.54312,0.53875,0.54063,0.54187,0.54875,0.55625,0.55188,0.54812,0.5525,0.55437,0.54812,0.5425,0.5425,0.54688,0.55063,0.55375,0.5625,0.57188,0.575,0.5725,0.57,0.56625,0.55875,0.5525,0.55063,0.54812,0.545,0.54563,0.54875,0.55312,0.56125,0.57125,0.575,0.5725,0.57,0.56812,0.55875,0.54875,0.54688,0.54875,0.54875,0.54875,0.54625,0.54563,0.55312,0.5625,0.56688,0.56937,0.56937,0.56312,0.55688,0.55375,0.55188,0.54812,0.5425,0.54125,0.54937,0.56,0.56125,0.56188,0.57125,0.5825,0.58813,0.595,0.5975,0.59062,0.57813,0.56063,0.54438,0.54375,0.56188,0.58313,0.58313,0.565,0.5525,0.54625,0.54063,0.53625,0.535,0.54063,0.55125,0.5525,0.53812,0.52875,0.53187,0.54,0.545,0.54688,0.54438,0.54,0.5425,0.55063,0.55375,0.54812,0.54187,0.54187,0.54812,0.5575,0.56312,0.56063,0.5575,0.55812,0.56125,0.56125,0.55625,0.55,0.54375,0.53875,0.54125,0.54875,0.5525,0.54812,0.54125,0.53438,0.52938,0.5275,0.52375,0.52063,0.52187,0.52375,0.52125,0.51938,0.52187,0.52625,0.52812,0.52938,0.53063,0.53125,0.53625,0.54187,0.54187,0.53938,0.53938,0.54187,0.54312,0.54375,0.54063,0.53687,0.53125,0.5225,0.5125,0.50875,0.515,0.52312,0.5275,0.53375,0.54187,0.5475,0.55125,0.5575,0.56375,0.56375,0.56375,0.5625,0.55312,0.53812,0.525,0.5175,0.5125,0.50813,0.51,0.50938,0.50625,0.51875,0.53,0.52312,0.51938,0.5275,0.53063,0.53063,0.53125,0.5275,0.52312,0.52125,0.5225,0.52625,0.53875,0.55063,0.55375,0.55063,0.54438,0.53687,0.5275,0.515,0.51,0.51875,0.53187,0.53375,0.52625,0.5225,0.52375,0.5275,0.52812,0.525,0.52125,0.515,0.50875,0.50938,0.51875,0.52563,0.525,0.52,0.51313,0.50625,0.5,0.49438,0.4975,0.505,0.51375,0.52312,0.52875,0.53063,0.53187,0.53687,0.54063,0.54063,0.54187,0.5375,0.52938,0.52125,0.51313,0.50875,0.50813,0.51187,0.51875,0.525,0.53563,0.54688,0.54688,0.54063,0.53375,0.52687,0.51875,0.505,0.49,0.49375,0.51313,0.51875,0.51313,0.51687,0.52563,0.52812,0.52938,0.53063,0.52812,0.53125,0.53812,0.54,0.54125,0.54187,0.54312,0.54875,0.55937,0.57062,0.5775,0.57875,0.57625,0.57625,0.57437,0.56563,0.56,0.55812,0.55,0.54187,0.54312,0.555,0.56875,0.575,0.57625,0.585,0.6,0.605,0.6,0.59625,0.59437,0.59437,0.59688,0.5975,0.60312,0.61438,0.62312,0.62875,0.63687,0.64,0.6375,0.64438,0.65625,0.65687,0.6525,0.6475,0.63562,0.62125,0.61812,0.61688,0.60187,0.5875,0.58813,0.58937,0.585,0.57688,0.55812,0.54,0.535,0.53687,0.53687,0.535,0.53438,0.5325,0.53063,0.52187,0.50562,0.49562,0.49188,0.49312,0.49375,0.49062,0.4875,0.48313,0.4825,0.4875,0.49438,0.50313,0.51313,0.52438,0.53125,0.53,0.525,0.5225,0.52187,0.5125,0.49438,0.47437,0.46625,0.48,0.5,0.5,0.49312,0.49938,0.5075,0.50687,0.50375,0.49938,0.495,0.49125,0.48875,0.48938,0.49125,0.4975,0.50375,0.5075,0.51313,0.51438,0.51062,0.515,0.53187,0.54375,0.535,0.52187,0.51375,0.50187,0.49312,0.4925,0.48438,0.47313,0.4725,0.47563,0.46875,0.46563,0.47687,0.49312,0.50313,0.5025,0.49438,0.485,0.4825,0.4875,0.495,0.50313,0.50625,0.50187,0.49875,0.49562,0.49,0.48562,0.48375,0.48187,0.48187,0.48875,0.49688,0.4975,0.49625,0.50062,0.50687,0.5075,0.51,0.51875,0.5225,0.51812,0.5125,0.50687,0.5025,0.5,0.49688,0.49562,0.51125,0.55312,0.595,0.62187,0.64438,0.67,0.69625,0.71688,0.7325,0.745,0.755,0.77125,0.79875,0.81938,0.83125,0.85,0.88,0.91187,0.9375,0.955,0.96125,0.94688,0.91563,0.88375,0.85063,0.81312,0.76625,0.7,0.63062,0.58375,0.56625,0.55063,0.51062,0.45875,0.4125,0.39375,0.38437,0.32125,0.20813,0.11125,0.05,-0.0225,-0.11813,-0.19625,-0.2525,-0.2825,-0.27938,-0.30437,-0.37,-0.41375,-0.4025,-0.35313,-0.29375,-0.24125,-0.22688,-0.24062,-0.25125,-0.26562,-0.27625,-0.27187,-0.26938,-0.2725,-0.27312,-0.27938,-0.28,-0.25375,-0.21437,-0.18375,-0.15938,-0.13125,-0.10313,-0.075,-0.03438,0.015,0.0625,0.11,0.15125,0.17688,0.20062,0.23313,0.27063,0.30563,0.33625,0.36563,0.39062,0.40937,0.42875,0.44937,0.46375,0.47375,0.48187,0.485,0.48375,0.48187,0.48375,0.48812,0.495,0.51125,0.52438,0.52063,0.51812,0.5175,0.51125,0.50938,0.51313,0.51375,0.51125,0.5075,0.50187,0.4975,0.49625,0.50062,0.51062,0.52312,0.5375,0.55,0.5525,0.54438,0.52875,0.51375,0.5075,0.51,0.50938,0.50438,0.51,0.53,0.5475,0.55188,0.5425,0.52375,0.51062,0.50875,0.51062,0.5125,0.51875,0.52875,0.53438,0.53312,0.53312,0.53187,0.52438,0.51812,0.51563,0.51625,0.52187,0.5325,0.545,0.55375,0.555,0.55375,0.55437,0.55688,0.5625,0.5625,0.55812,0.55688,0.5525,0.545,0.53875,0.52687,0.51938,0.525,0.52938,0.52563,0.52687,0.53687,0.545,0.545,0.54,0.53563,0.53438,0.53312,0.53125,0.52563,0.52625,0.54,0.5525,0.55063,0.54937,0.55437,0.555,0.55,0.54875,0.54563,0.54,0.53625,0.53063,0.52687,0.5325,0.54563,0.55125,0.55063,0.55,0.54937,0.55063,0.55188,0.55188,0.55563,0.5625,0.56688,0.5675,0.56437,0.55688,0.55,0.545,0.54125,0.53938,0.54312,0.55125,0.5525,0.54312,0.53438,0.5275,0.5175,0.51563,0.53,0.55,0.55937,0.55937,0.56063,0.55812,0.55375,0.5525,0.55063,0.55,0.55063,0.5475,0.54312,0.54375,0.54812,0.55188,0.55937,0.56437,0.56,0.5575,0.56125,0.56375,0.56188,0.55875,0.55375,0.545,0.53375,0.52875,0.5375,0.5525,0.55688,0.55188,0.55437,0.56,0.56,0.55625,0.55563,0.5575,0.55812,0.55625,0.54875,0.53938,0.535,0.54125,0.55375,0.5575,0.55375,0.55188,0.55063,0.54563,0.5375,0.52687,0.52938,0.54875,0.55937,0.555,0.55312,0.55312,0.55063,0.54812,0.54563,0.54812,0.55812,0.5625,0.55937,0.55937,0.55937,0.55625,0.55188,0.54563,0.54,0.5375,0.53875,0.54063,0.5375,0.52875,0.525,0.53063,0.54,0.545,0.545,0.545,0.54937,0.55063,0.54812,0.55125,0.55625,0.5525,0.54563,0.54312,0.54063,0.53625,0.53812,0.54563,0.54375,0.53438,0.52312,0.51187,0.505,0.50313,0.49875,0.49375,0.49812,0.505,0.50687,0.51125,0.51938,0.52125,0.51875,0.51812,0.51875,0.52,0.52375,0.52812,0.52687,0.525,0.53438,0.54625,0.54812,0.54187,0.53063,0.515,0.50187,0.49875,0.495,0.48938,0.5,0.52312,0.53438,0.535,0.53312,0.53,0.52687,0.52375,0.52375,0.53063,0.54,0.545,0.54563,0.545,0.54,0.5325,0.52438,0.5125,0.50438,0.51438,0.53187,0.53812,0.53438,0.53312,0.53875,0.5425,0.53875,0.53625,0.535,0.53187,0.53063,0.53312,0.5375,0.54063,0.54063,0.5375,0.53687,0.54063,0.54187,0.53875,0.53563,0.53625,0.54,0.54625,0.54563,0.535,0.53063,0.53625,0.54125,0.54187,0.54375,0.54688,0.55312,0.56063,0.56625,0.56375,0.55563,0.54375,0.53375,0.52938,0.5275,0.53187,0.53438,0.53063,0.52563,0.5225,0.52687,0.53875,0.545,0.54688,0.54688,0.54375,0.545,0.555,0.56312,0.56312,0.55812,0.55312,0.55375,0.56,0.56,0.55063,0.54312,0.54125,0.53438,0.52063,0.51375,0.51438,0.5175,0.52687,0.53187,0.53063,0.53438,0.54187,0.5475,0.54688,0.54625,0.55125,0.5575,0.55937,0.5575,0.55437,0.55125,0.555,0.55937,0.55437,0.55375,0.56188,0.56437,0.55937,0.55563,0.55437,0.55563,0.56437,0.56688,0.55375,0.54125,0.5425,0.54438,0.54187,0.5425,0.54875,0.54875,0.54625,0.55,0.55688,0.56,0.56,0.55312,0.5425,0.53375,0.52687,0.525,0.535,0.55437,0.56688,0.57,0.5725,0.57,0.56063,0.55125,0.54375,0.53875,0.54688,0.56688,0.57688,0.575,0.57375,0.5725,0.5675,0.56125,0.55437,0.55125,0.55437,0.55063,0.54187,0.545,0.55688,0.55937,0.54937,0.53812,0.5375,0.55,0.55937,0.55375,0.5475,0.54563,0.5425,0.54,0.54,0.54312,0.54563,0.545,0.54625,0.54937,0.5525,0.55312,0.55188,0.55,0.54812,0.545,0.5425,0.54375,0.545,0.54187,0.54125,0.54312,0.54563,0.54812,0.55125,0.55563,0.555,0.5475,0.54187,0.5375,0.53563,0.5375,0.53875,0.5375,0.54375,0.55312,0.55312,0.54937,0.54937,0.54625,0.54,0.53938,0.54625,0.54812,0.5425,0.53812,0.535,0.53312,0.53563,0.54,0.53875,0.53187,0.52625,0.5225,0.52,0.5225,0.525,0.52687,0.535,0.545,0.54438,0.535,0.52563,0.52,0.51687,0.51625,0.51687,0.51875,0.52187,0.525,0.52875,0.535,0.54312,0.54812,0.54563,0.54312,0.54375,0.54,0.52875,0.51812,0.51875,0.52687,0.52812,0.52687,0.5275,0.52375,0.51625,0.51625,0.52,0.51875,0.51687,0.51875,0.52125,0.51938,0.51812,0.52438,0.52875,0.52938,0.52875,0.52187,0.51313,0.51,0.50687,0.49938,0.49375,0.49375,0.48938,0.4825,0.49188,0.51438,0.52687,0.52812,0.52563,0.52125,0.51687,0.51062,0.49938,0.49688,0.51375,0.53438,0.53563,0.52625,0.52438,0.52563,0.52438,0.525,0.52312,0.51875,0.51438,0.5075,0.50125,0.505,0.52375,0.54063,0.545,0.54312,0.53812,0.5275,0.51938,0.51687,0.51563,0.51438,0.51875,0.53063,0.5375,0.53,0.51938,0.515,0.51687,0.52438,0.53187,0.53625,0.53812,0.53563,0.52687,0.51812,0.51125,0.5025,0.49562,0.49375,0.4975,0.50438,0.50687,0.5075,0.50938,0.51187,0.51438,0.52125,0.5325,0.53812,0.53563,0.53187,0.52875,0.5275,0.52875,0.53063,0.53187,0.5375,0.54125,0.53375,0.52625,0.53187,0.54375,0.54812,0.555,0.57,0.57563,0.5625,0.54375,0.52875,0.52063,0.5325,0.55,0.54688,0.54,0.55,0.55812,0.55812,0.56,0.56437,0.56812,0.57375,0.58188,0.58875,0.59437,0.6025,0.61,0.61313,0.615,0.61875,0.62187,0.62312,0.62062,0.61563,0.61125,0.60875,0.60687,0.61063,0.61937,0.62375,0.62125,0.61438,0.61,0.61,0.61125,0.61313,0.61563,0.61188,0.60437,0.59375,0.57875,0.56,0.5425,0.53063,0.5225,0.52312,0.52938,0.52687,0.51,0.49312,0.48625,0.48313,0.48187,0.48313,0.4825,0.47875,0.48,0.48875,0.4975,0.50313,0.50875,0.51812,0.5275,0.52812,0.5175,0.5075,0.50687,0.51,0.51313,0.51812,0.51875,0.5125,0.50125,0.48938,0.47813,0.4675,0.45937,0.46375,0.47875,0.49438,0.49938,0.49375,0.49,0.49125,0.48438,0.47875,0.485,0.48875,0.48688,0.48875,0.495,0.49688,0.49375,0.49188,0.49062,0.4875,0.48625,0.48688,0.485,0.48125,0.48187,0.48375,0.48438,0.48688,0.48812,0.48063,0.46813,0.45813,0.45813,0.475,0.49562,0.49938,0.49625,0.49875,0.50313,0.51,0.51438,0.5125,0.50375,0.495,0.49062,0.48688,0.47687,0.46437,0.46563,0.47813,0.48688,0.4875,0.48688,0.49062,0.49438,0.49812,0.50625,0.51375,0.51938,0.52187,0.51563,0.505,0.5,0.49938,0.49875,0.49562,0.49562,0.50875,0.5375,0.57813,0.61812,0.65063,0.68125,0.71438,0.73813,0.74875,0.75562,0.76125,0.77,0.7875,0.80625,0.81625,0.83125,0.86562,0.90437,0.93062,0.94312,0.94375,0.935,0.9225,0.905,0.87062,0.8225,0.7725,0.70813,0.62687,0.56563,0.5525,0.55563,0.53,0.48375,0.44125,0.40813,0.3875,0.36375,0.31188,0.24312,0.18562,0.13938,0.06312,-0.0575,-0.1625,-0.20813,-0.20188,-0.17188,-0.17625,-0.22062,-0.245,-0.23125,-0.2075,-0.18812,-0.16,-0.1375,-0.1325,-0.12562,-0.12625,-0.14563,-0.16187,-0.1725,-0.18312,-0.18625,-0.19625,-0.21125,-0.20562,-0.17125,-0.13687,-0.1225,-0.10625,-0.07063,-0.0375,-0.01313,0.02125,0.06188,0.10063,0.13938,0.17938,0.21437,0.24625,0.28,0.31375,0.34313,0.36563,0.38063,0.39,0.39438,0.40125,0.41125,0.42563,0.44375,0.45813,0.46563,0.4725,0.47813,0.48,0.48375,0.49,0.49875,0.5075,0.51438,0.515,0.51062,0.50313,0.49125,0.47937,0.47563,0.48,0.4875,0.4925,0.48875,0.48187,0.48,0.48063,0.48625,0.4975,0.5125,0.52625,0.53375,0.535,0.53687,0.54438,0.55375,0.55875,0.55688,0.54875,0.53375,0.5175,0.49812,0.47437,0.46625,0.48688,0.51625,0.5225,0.51812,0.52187,0.52687,0.52563,0.52312,0.52438,0.52438,0.52187,0.52125,0.52125,0.52187,0.5225,0.52312,0.5275,0.53125,0.53063,0.53,0.52938,0.52875,0.53063,0.53063,0.52563,0.52,0.51438,0.51062,0.5075,0.50313,0.5025,0.50813,0.51563,0.5275,0.5375,0.54063,0.53812,0.53375,0.52812,0.52812,0.53563,0.54,0.53812,0.53875,0.53812,0.52812,0.51375,0.50125,0.495,0.50062,0.51875,0.5325,0.53,0.52125,0.51812,0.51687,0.51687,0.52312,0.52875,0.5275,0.52312,0.52375,0.52812,0.535,0.54063,0.54125,0.54063,0.53938,0.5375,0.53875,0.53687,0.53187,0.52625,0.52625,0.52625,0.51625,0.51,0.5125,0.5175,0.52063,0.52625,0.53625,0.54063,0.54125,0.54312,0.53875,0.5275,0.51375,0.49625,0.48313,0.48875,0.51125,0.5175,0.5125,0.525,0.54,0.54312,0.54,0.53938,0.53938,0.5375,0.53625,0.53375,0.53125,0.53187,0.53125,0.53,0.5325,0.535,0.535,0.5325,0.5275,0.52187,0.51625,0.51438,0.52,0.52625,0.52875,0.52812,0.52563,0.525,0.52375,0.51938,0.51938,0.51938,0.51687,0.51625,0.52063,0.52312,0.52312,0.52812,0.53312,0.53375,0.53312,0.53063,0.52375,0.50875,0.49562,0.49438,0.49812,0.51062,0.52938,0.53563,0.53125,0.525,0.51875,0.51313,0.51125,0.51,0.50938,0.51438,0.52625,0.53563,0.53687,0.5325,0.52625,0.51812,0.51313,0.50813,0.50375,0.50938,0.52,0.52125,0.51625,0.51438,0.51313,0.51313,0.5175,0.51625,0.51438,0.52125,0.52438,0.51375,0.5025,0.49312,0.48125,0.485,0.5075,0.51625,0.50187,0.49188,0.48688,0.47563,0.46875,0.46687,0.46875,0.48,0.49062,0.4875,0.48125,0.48187,0.4875,0.49812,0.50625,0.50562,0.50313,0.50625,0.50875,0.50625,0.5025,0.49688,0.49312,0.49812,0.50562,0.50625,0.51125,0.525,0.53063,0.52187,0.51313,0.5075,0.49875,0.49625,0.50187,0.505,0.51125,0.52687,0.54063,0.54125,0.53625,0.53563,0.53563,0.53375,0.53375,0.52938,0.52125,0.51687,0.51563,0.51313,0.50875,0.51125,0.52187,0.52812,0.5275,0.52875,0.53063,0.53187,0.53375,0.53375,0.53438,0.53812,0.54312,0.545,0.545,0.545,0.54063,0.53625,0.53438,0.5325,0.53312,0.53563,0.53438,0.535,0.53438,0.53,0.52812,0.53063,0.53563,0.54125,0.54438,0.54375,0.54063,0.54063,0.54438,0.54438,0.54375,0.54688,0.54688,0.54375,0.54125,0.53812,0.5375,0.55,0.57188,0.57875,0.57437,0.57312,0.57188,0.56688,0.55937,0.55,0.53687,0.52563,0.52187,0.52187,0.52438,0.53125,0.53312,0.52812,0.52812,0.53125,0.5275,0.51938,0.51375,0.51375,0.52,0.52625,0.52812,0.52812,0.53063,0.53625,0.54,0.53687,0.53125,0.53125,0.53812,0.53687,0.52812,0.52812,0.54125,0.55688,0.56437,0.55875,0.54875,0.54063,0.54,0.55063,0.55812,0.5575,0.555,0.5525,0.54937,0.55063,0.54875,0.54063,0.53,0.52438,0.52563,0.53687,0.55875,0.57188,0.56312,0.555,0.5575,0.55625,0.5525,0.55125,0.55125,0.5525,0.555,0.56,0.56188,0.55625,0.54625,0.5325,0.515,0.5075,0.5175,0.5325,0.53375,0.5325,0.54438,0.55312,0.54937,0.54312,0.54312,0.54937,0.55312,0.55063,0.54875,0.55437,0.55875,0.55375,0.54563,0.54063,0.5375,0.53438,0.53438,0.5375,0.53938,0.54187,0.54875,0.555,0.55937,0.56375,0.56125,0.555,0.54875,0.53875,0.5275,0.52375,0.525,0.53375,0.54875,0.55437,0.54688,0.53438,0.5325,0.5425,0.5525,0.55688,0.55625,0.5525,0.5475,0.54,0.53,0.51938,0.50938,0.50687,0.51062,0.51125,0.51187,0.51812,0.52563,0.53,0.52875,0.52375,0.52375,0.53063,0.53938,0.54438,0.54187,0.5425,0.54875,0.55,0.5475,0.54875,0.54875,0.54563,0.54312,0.5375,0.52812,0.52438,0.52375,0.52187,0.52375,0.52563,0.52375,0.51875,0.515,0.515,0.51812,0.52312,0.53125,0.53625,0.5375,0.5375,0.53687,0.53625,0.53375,0.5275,0.5225,0.525,0.53625,0.545,0.53938,0.53312,0.53,0.52375,0.5175,0.515,0.51125,0.50938,0.51625,0.52375,0.52563,0.52687,0.5275,0.52438,0.52812,0.53875,0.54438,0.53938,0.5325,0.525,0.51625,0.51062,0.50625,0.49625,0.49125,0.50187,0.51187,0.5075,0.50438,0.50687,0.51062,0.51187,0.515,0.52375,0.52875,0.52625,0.52687,0.53438,0.53875,0.53375,0.525,0.515,0.50438,0.5,0.505,0.50938,0.51313,0.51875,0.52063,0.51938,0.51875,0.51687,0.51438,0.51687,0.52438,0.52812,0.52438,0.51938,0.5175,0.51375,0.50875,0.50938,0.51125,0.50625,0.50687,0.51375,0.52,0.52812,0.535,0.53938,0.54125,0.53625,0.52875,0.52063,0.51438,0.51438,0.51875,0.52187,0.52,0.51875,0.52375,0.53,0.53687,0.54563,0.55563,0.56375,0.57312,0.57688,0.565,0.54125,0.51812,0.49688,0.48438,0.48375,0.4925,0.50062,0.50875,0.52063,0.52687,0.5275,0.52687,0.52312,0.52,0.51875,0.52,0.52063,0.52125,0.52312,0.52438,0.52625,0.52875,0.52938,0.53438,0.545,0.55312,0.55563,0.555,0.55375,0.55,0.54125,0.5325,0.53063,0.53375,0.54063,0.5525,0.56312,0.57062,0.58125,0.59125,0.59313,0.59062,0.59,0.59437,0.5975,0.59375,0.59125,0.59562,0.605,0.61438,0.61563,0.61313,0.6175,0.62687,0.63562,0.6375,0.62937,0.61688,0.61125,0.615,0.61438,0.60625,0.6,0.5975,0.595,0.5925,0.58563,0.57625,0.57188,0.57125,0.56375,0.54875,0.53938,0.5375,0.53563,0.52938,0.52438,0.52125,0.51563,0.51313,0.51563,0.51625,0.51625,0.51625,0.51625,0.51313,0.5075,0.49875,0.49,0.485,0.48375,0.48875,0.50187,0.515,0.52187,0.52063,0.51875,0.52,0.51812,0.51187,0.50625,0.50687,0.50938,0.50313,0.48688,0.4725,0.4725,0.48438,0.48187,0.46875,0.47313,0.49438,0.505,0.5025,0.5075,0.51313,0.50938,0.5025,0.50062,0.5025,0.5,0.49188,0.48438,0.48438,0.49,0.4975,0.50125,0.49812,0.4975,0.50125,0.49875,0.485,0.47313,0.47313,0.48063,0.49125,0.4975,0.49812,0.49812,0.49625,0.48875,0.4875,0.49438,0.49875,0.49938,0.50375,0.50187,0.48688,0.47187,0.47313,0.49,0.50438,0.50562,0.5025,0.5025,0.50187,0.49938,0.49812,0.50062,0.50813,0.51625,0.51062,0.5,0.495,0.49188,0.48875,0.49062,0.49812,0.505,0.5075,0.50562,0.505,0.5125,0.52875,0.55,0.57125,0.59937,0.63125,0.65687,0.67688,0.69875,0.71937,0.73563,0.75375,0.765,0.76937,0.78563,0.79875,0.79437,0.79063,0.805,0.84375,0.89875,0.93375,0.93562,0.92688,0.91437,0.89437,0.86625,0.825,0.7775,0.72187,0.65188,0.59125,0.56812,0.57188,0.55125,0.495,0.44,0.40437,0.38687,0.37563,0.34562,0.2825,0.2175,0.17,0.10375,-0.00938,-0.11938,-0.17563,-0.19375,-0.17937,-0.16812,-0.20125,-0.25125,-0.2675,-0.24,-0.19625,-0.1525,-0.11875,-0.10688,-0.09625,-0.0925,-0.11687,-0.14187,-0.14875,-0.15875,-0.17063,-0.17625,-0.185,-0.18812,-0.16438,-0.12562,-0.10313,-0.09125,-0.065,-0.03312,-0.00375,0.03563,0.08625,0.1325,0.16937,0.19938,0.21937,0.22875,0.23688,0.255,0.29125,0.33938,0.37625,0.395,0.41125,0.4275,0.4375,0.44188,0.44625,0.45375,0.46063,0.46937,0.48187,0.49188,0.49438,0.49062,0.48313,0.47875,0.47875,0.48063,0.485,0.495,0.50813,0.5125,0.505,0.50062,0.50125,0.50062,0.49812,0.49625,0.50375,0.51687,0.52375,0.52375,0.5225,0.52375,0.5225,0.51438,0.50687,0.50813,0.51563,0.52938,0.54438,0.55063,0.54937,0.54625,0.54312,0.53375,0.52,0.5075,0.505,0.51125,0.50938,0.5075,0.51625,0.52063,0.51687,0.5175,0.525,0.53,0.52875,0.52812,0.53,0.53125,0.52438,0.51187,0.50187,0.5,0.505,0.51062,0.5175,0.525,0.53312,0.54375,0.54812,0.54688,0.54563,0.53938,0.52875,0.52375,0.52875,0.53812,0.54625,0.54438,0.53687,0.53438,0.5325,0.52375,0.51563,0.51812,0.52375,0.52812,0.53125,0.53125,0.53063,0.53438,0.54063,0.54063,0.53312,0.52187,0.51375,0.5075,0.5075,0.5125,0.51563,0.52063,0.52563,0.52563,0.5225,0.52,0.51687,0.51187,0.5075,0.5125,0.5175,0.51812,0.52187,0.52875,0.53187,0.53,0.52625,0.52375,0.52312,0.52187,0.51875,0.515,0.5125,0.51438,0.51812,0.52,0.51812,0.51875,0.52563,0.5325,0.53438,0.53438,0.535,0.53,0.52063,0.51438,0.515,0.52687,0.53938,0.54375,0.54063,0.53312,0.52063,0.505,0.49,0.49,0.5075,0.52375,0.525,0.52312,0.52438,0.52812,0.53,0.5275,0.52625,0.52563,0.52375,0.52563,0.53,0.53438,0.53687,0.535,0.52875,0.52187,0.5175,0.51625,0.51313,0.5075,0.50062,0.49188,0.49188,0.50125,0.5125,0.52375,0.53375,0.53875,0.54063,0.5425,0.53687,0.52,0.5025,0.49312,0.49125,0.495,0.50187,0.50062,0.4975,0.5075,0.51563,0.51625,0.515,0.5125,0.51125,0.51687,0.52438,0.53063,0.53187,0.52625,0.52187,0.5225,0.51812,0.50938,0.5,0.49125,0.4875,0.49312,0.50438,0.5125,0.5175,0.52187,0.52563,0.525,0.52125,0.51563,0.5075,0.5025,0.49625,0.48688,0.48187,0.48,0.47937,0.48625,0.495,0.5,0.50062,0.4975,0.49438,0.49,0.48187,0.47125,0.46313,0.46687,0.49188,0.51375,0.51,0.50062,0.49875,0.49125,0.47813,0.47063,0.47063,0.47063,0.47563,0.48375,0.49062,0.4975,0.50438,0.50687,0.5075,0.50625,0.50313,0.5,0.49062,0.47813,0.47437,0.48438,0.49938,0.50375,0.4975,0.49438,0.49625,0.49375,0.48938,0.48875,0.49125,0.50187,0.51875,0.52938,0.5275,0.52,0.51563,0.51438,0.51625,0.51938,0.51938,0.51938,0.51938,0.52,0.52125,0.52125,0.52063,0.52063,0.52438,0.52687,0.5275,0.5325,0.53625,0.53375,0.53312,0.53687,0.53812,0.53687,0.53687,0.5375,0.54125,0.54312,0.53938,0.5375,0.53625,0.53438,0.53125,0.5275,0.52375,0.525,0.53125,0.53625,0.53625,0.53438,0.53625,0.53938,0.54125,0.54438,0.54812,0.54688,0.54438,0.54438,0.545,0.54187,0.5375,0.54,0.54625,0.54625,0.54063,0.53438,0.53063,0.53125,0.53438,0.54125,0.54937,0.55188,0.55188,0.555,0.55875,0.55312,0.53625,0.52,0.50562,0.495,0.50062,0.525,0.5475,0.55,0.54875,0.54875,0.54312,0.53875,0.54063,0.5425,0.54063,0.53312,0.525,0.5225,0.5275,0.52938,0.52563,0.5275,0.53875,0.54875,0.54875,0.5425,0.53687,0.53375,0.5375,0.54812,0.555,0.55312,0.55063,0.55,0.54438,0.53875,0.53812,0.54063,0.54875,0.55875,0.56063,0.55688,0.55,0.54187,0.53687,0.535,0.5325,0.5325,0.54063,0.5475,0.55,0.55437,0.56125,0.56625,0.56563,0.56312,0.55937,0.55375,0.55063,0.5475,0.54125,0.53375,0.53125,0.53563,0.54187,0.54438,0.54438,0.54688,0.54563,0.54312,0.5425,0.54,0.535,0.53063,0.52625,0.53,0.53875,0.54438,0.54812,0.55312,0.5525,0.54937,0.54688,0.5425,0.5375,0.54,0.54875,0.55188,0.55,0.54688,0.54563,0.54438,0.53938,0.53438,0.53438,0.53687,0.535,0.53438,0.54,0.54438,0.54187,0.5375,0.53625,0.53625,0.53687,0.53625,0.53375,0.535,0.54187,0.54563,0.54375,0.54187,0.5425,0.54312,0.54812,0.55312,0.5475,0.535,0.52687,0.51438,0.49812,0.49438,0.50375,0.5125,0.52563,0.54063,0.53875,0.53125,0.53812,0.54375,0.53812,0.53563,0.5375,0.535,0.53063,0.52563,0.5175,0.51313,0.51687,0.5225,0.525,0.52375,0.52375,0.52625,0.5275,0.52812,0.5275,0.52563,0.52563,0.52563,0.5225,0.52,0.51812,0.51563,0.51563,0.5175,0.51812,0.51875,0.52063,0.52312,0.52563,0.525,0.52375,0.52187,0.51938,0.51563,0.5125,0.5125,0.51187,0.50938,0.51062,0.51875,0.52563,0.52812,0.53125,0.5275,0.51875,0.515,0.51313,0.51125,0.51125,0.51313,0.5125,0.51125,0.51375,0.51687,0.51875,0.52,0.51938,0.51812,0.51875,0.51812,0.51438,0.515,0.5175,0.5175,0.51875,0.52375,0.52875,0.53438,0.535,0.52875,0.52125,0.51563,0.50938,0.5025,0.49312,0.48812,0.495,0.50625,0.50938,0.50813,0.5075,0.505,0.49812,0.49625,0.50375,0.51187,0.52,0.5275,0.53125,0.52875,0.52063,0.50875,0.49938,0.4975,0.50375,0.5125,0.51812,0.5175,0.51375,0.515,0.51563,0.51438,0.5175,0.525,0.53187,0.53375,0.5325,0.5325,0.53563,0.54187,0.53687,0.5225,0.51375,0.5075,0.49812,0.48562,0.47375,0.47437,0.49375,0.51625,0.51938,0.50813,0.5,0.49562,0.49438,0.49875,0.50562,0.51438,0.52125,0.52687,0.53,0.53,0.53187,0.53312,0.53563,0.5425,0.54375,0.53687,0.53625,0.53938,0.53625,0.53063,0.5275,0.52438,0.5225,0.53063,0.54688,0.55437,0.55063,0.55188,0.56,0.565,0.56812,0.57062,0.57,0.57062,0.57125,0.57062,0.57563,0.58875,0.60187,0.60375,0.59688,0.59813,0.605,0.60875,0.60938,0.61188,0.61937,0.62687,0.625,0.6175,0.61625,0.6225,0.62,0.60375,0.59,0.59062,0.595,0.59313,0.595,0.60063,0.60375,0.60063,0.59062,0.57563,0.56063,0.54875,0.53812,0.53,0.525,0.51625,0.50438,0.49625,0.49062,0.48562,0.48375,0.48562,0.49125,0.49812,0.5,0.495,0.48938,0.48375,0.47937,0.4825,0.49125,0.49625,0.49938,0.505,0.50438,0.49625,0.4925,0.49812,0.50813,0.51375,0.51125,0.50438,0.49438,0.48562,0.48125,0.47937,0.48625,0.5075,0.52125,0.51438,0.50375,0.4975,0.48938,0.4825,0.48063,0.47687,0.47375,0.47563,0.48187,0.48812,0.4875,0.48562,0.49062,0.49562,0.49375,0.4925,0.49688,0.50125,0.50187,0.50062,0.49938,0.4925,0.48187,0.47937,0.47813,0.46937,0.46375,0.47063,0.48313,0.49,0.48875,0.48812,0.49812,0.51062,0.51438,0.5075,0.50062,0.49812,0.4975,0.5,0.49938,0.49312,0.48375,0.4725,0.47,0.4825,0.49375,0.495,0.49,0.48438,0.48438,0.48812,0.49375,0.50187,0.5125,0.5125,0.50813,0.50625,0.49938,0.49062,0.48875,0.49688,0.50875,0.5275,0.54438,0.555,0.5775,0.61125,0.63062,0.64563,0.67938,0.71438,0.73312,0.7475,0.76562,0.78813,0.81125,0.82438,0.83063,0.84563,0.86688,0.88875,0.90813,0.925,0.935,0.92562,0.90687,0.89062,0.8675,0.8325,0.78375,0.71937,0.6475,0.59813,0.58937,0.57688,0.5225,0.45188,0.39813,0.37875,0.36938,0.30688,0.1875,0.09125,0.035,-0.04563,-0.14625,-0.22375,-0.28,-0.29875,-0.28687,-0.32375,-0.41125,-0.45,-0.4125,-0.35,-0.30375,-0.27875,-0.27125,-0.27312,-0.27438,-0.285,-0.28938,-0.26625,-0.25,-0.2575,-0.26875,-0.28687,-0.29875,-0.27563,-0.2375,-0.20937,-0.1825,-0.15,-0.11875,-0.08625,-0.04688,0.00062,0.05188,0.10813,0.16063,0.19688,0.22187,0.2475,0.27563,0.30813,0.34937,0.39188,0.42188,0.44,0.45,0.45313,0.45375,0.45313,0.44688,0.44875,0.46875,0.4925,0.50125,0.49812,0.5,0.50625,0.505,0.50313,0.505,0.49938,0.49125,0.48812,0.48875,0.48812,0.4825,0.47875,0.47875,0.48688,0.49812,0.49875,0.49812,0.51187,0.5225,0.51438,0.5125,0.52812,0.5375,0.5325,0.525,0.51938,0.51375,0.50687,0.50187,0.50875,0.52812,0.53687,0.53125,0.53687,0.54375,0.535,0.52312,0.51875,0.51875,0.51812,0.5125,0.51062,0.51875,0.5325,0.53812,0.53,0.52563,0.53125,0.535,0.53125,0.5325,0.54187,0.54875,0.5425,0.52812,0.52125,0.52,0.52125,0.5275,0.53,0.5325,0.5425,0.54875,0.54625,0.54187,0.5325,0.52,0.51375,0.515,0.52,0.53625,0.555,0.55937,0.55312,0.54812,0.54312,0.53563,0.53,0.53187,0.545,0.55875,0.56,0.56063,0.55812,0.54438,0.52625,0.50875,0.49562,0.5025,0.53063,0.54937,0.5475,0.54563,0.545,0.54187,0.54312,0.54438,0.53812,0.53875,0.55,0.55188,0.54063,0.53563,0.53812,0.53812,0.54,0.54688,0.55312,0.55437,0.55312,0.55063,0.54438,0.54,0.5375,0.53625,0.53938,0.54563,0.55063,0.54875,0.5425,0.53938,0.54187,0.54688,0.55125,0.55375,0.55812,0.56125,0.56437,0.56875,0.57625,0.58125,0.57625,0.56437,0.55312,0.53812,0.52125,0.5175,0.52438,0.53125,0.54375,0.555,0.55188,0.545,0.54375,0.54312,0.53187,0.52812,0.55188,0.5725,0.56312,0.54688,0.54187,0.54063,0.54063,0.5425,0.54312,0.545,0.55312,0.56,0.55937,0.55937,0.5675,0.57,0.56125,0.5525,0.54688,0.53875,0.53438,0.53938,0.5475,0.555,0.56063,0.56312,0.56188,0.55312,0.54438,0.5525,0.56625,0.56937,0.5675,0.56625,0.56375,0.56312,0.56188,0.55625,0.54812,0.54812,0.54937,0.54063,0.53563,0.545,0.56375,0.58375,0.5925,0.58563,0.57312,0.56188,0.5575,0.55375,0.53687,0.52438,0.54,0.5575,0.55812,0.55812,0.55937,0.55937,0.55625,0.54937,0.54063,0.5375,0.5425,0.54875,0.55188,0.55,0.5425,0.535,0.52687,0.52438,0.52812,0.52625,0.52187,0.52625,0.53812,0.54688,0.55,0.5525,0.55812,0.56563,0.56375,0.55875,0.56125,0.56125,0.54688,0.53875,0.53563,0.52563,0.5275,0.53312,0.53,0.54063,0.5575,0.56,0.56125,0.56312,0.55563,0.54937,0.55,0.55437,0.55625,0.5475,0.53875,0.53063,0.51375,0.50062,0.50625,0.53312,0.56125,0.5675,0.56,0.55875,0.56312,0.56312,0.55875,0.55937,0.56188,0.56312,0.5625,0.55312,0.5375,0.53687,0.55063,0.54937,0.5425,0.55063,0.55688,0.55563,0.55125,0.54375,0.53563,0.53812,0.55188,0.56875,0.57375,0.57,0.57375,0.58188,0.58188,0.57937,0.5725,0.5575,0.54812,0.54312,0.53812,0.54375,0.55812,0.56625,0.57062,0.56688,0.54875,0.53375,0.52687,0.52187,0.53125,0.56625,0.59625,0.59188,0.57125,0.55875,0.56,0.5575,0.53625,0.5275,0.55563,0.58313,0.58563,0.57625,0.56375,0.55937,0.5575,0.55063,0.53938,0.5325,0.53187,0.52812,0.53063,0.55,0.56625,0.56437,0.55875,0.56375,0.57,0.56937,0.57,0.56812,0.55625,0.55312,0.56688,0.5675,0.55437,0.5525,0.55688,0.56312,0.58125,0.60125,0.59937,0.58125,0.57125,0.57625,0.57688,0.56625,0.55937,0.56563,0.56625,0.54563,0.53687,0.55563,0.5525,0.53125,0.54312,0.57062,0.5875,0.60375,0.60938,0.585,0.56437,0.56688,0.56812,0.56375,0.56563,0.58125,0.59937,0.605,0.59875,0.59,0.58563,0.59375,0.60687,0.61063,0.60875,0.60875,0.59875,0.59,0.59062,0.58,0.565,0.55937,0.55563,0.54875,0.54375,0.54312,0.55437,0.575,0.59062,0.595,0.5925,0.59625,0.59625,0.58437,0.57813,0.5725,0.55937,0.55875,0.57563,0.58937,0.58875,0.57937,0.57937,0.58,0.58125,0.60312,0.62312,0.62812,0.635,0.63,0.60625,0.58,0.55,0.51625,0.51563,0.55375,0.57563,0.57312,0.5725,0.57437,0.57625,0.58062,0.5825,0.57688,0.57813,0.59625,0.60312,0.59562,0.59937,0.59625,0.5925,0.59937,0.59625,0.59062,0.58625,0.5825,0.57437,0.55875,0.56125,0.57125,0.56937,0.57688,0.58937,0.58813,0.58688,0.59313,0.59125,0.58,0.58437,0.59375,0.58,0.56437,0.565,0.56188,0.55875,0.56375,0.55812,0.54937,0.57312,0.6025,0.59937,0.58875,0.58563,0.57563,0.56375,0.55688,0.56125,0.58125,0.58313,0.5575,0.53625,0.52875,0.53375,0.54937,0.575,0.59813,0.5975,0.58625,0.57563,0.565,0.56375,0.5675,0.56188,0.5575,0.5675,0.5825,0.59375,0.58937,0.57312,0.575,0.58375,0.57563,0.575,0.59125,0.6,0.59125,0.57,0.54937,0.53563,0.53563,0.54875,0.56,0.56812,0.57688,0.575,0.56188,0.555,0.55688,0.55875,0.55625,0.55188,0.545,0.54125,0.54875,0.55125,0.54688,0.55063,0.56188,0.56688,0.56625,0.56875,0.575,0.5775,0.57688,0.57125,0.56875,0.58188,0.60312,0.60437,0.58937,0.58375,0.58313,0.57062,0.55188,0.54,0.53125,0.53125,0.54688,0.55312,0.54812,0.54563,0.54563,0.55,0.55563,0.56563,0.57875,0.58688,0.59562,0.6025,0.60562,0.61188,0.61188,0.59875,0.5825,0.56688,0.55188,0.53625,0.53187,0.5525,0.57563,0.58188,0.57437,0.56312,0.55688,0.55563,0.56063,0.56875,0.56563,0.56188,0.57188,0.58625,0.59313,0.59062,0.58688,0.58437,0.57437,0.56375,0.55688,0.55063,0.55812,0.58437,0.60125,0.59813,0.59562,0.60187,0.60437,0.60125,0.60437,0.6075,0.60938,0.61812,0.62687,0.62562,0.6175,0.61438,0.62625,0.64938,0.66937,0.68125,0.68,0.6675,0.65687,0.6475,0.62687,0.60375,0.60938,0.64625,0.67125,0.6825,0.69937,0.7,0.68375,0.67062,0.66687,0.67188,0.68,0.68313,0.68313,0.67438,0.64813,0.62812,0.62437,0.63187,0.64938,0.65188,0.63312,0.61563,0.60063,0.58688,0.57937,0.57625,0.57688,0.58125,0.57875,0.56937,0.565,0.56375,0.55688,0.54625,0.53812,0.53063,0.5225,0.51125,0.5075,0.52687,0.55125,0.55312,0.5475,0.54937,0.55312,0.55937,0.56437,0.55937,0.55625,0.5625,0.56437,0.56,0.55812,0.55937,0.5625,0.57312,0.5825,0.585,0.58375,0.58188,0.57437,0.55625,0.5325,0.51438,0.51563,0.53063,0.53312,0.51812,0.5175,0.53875,0.55625,0.55812,0.55937,0.56125,0.55312,0.53687,0.5175,0.50625,0.51125,0.52063,0.525,0.53063,0.54312,0.55063,0.54688,0.5475,0.56,0.56688,0.56875,0.57062,0.56375,0.54812,0.53625,0.53063,0.52938,0.535,0.54812,0.54688,0.53,0.51938,0.52187,0.52938,0.53438,0.54187,0.5525,0.5575,0.55875,0.56063,0.55563,0.55063,0.5575,0.56812,0.57062,0.56188,0.54875,0.54312,0.54625,0.54688,0.54125,0.54125,0.5475,0.55063,0.55937,0.58,0.6125,0.65063,0.69312,0.72937,0.75375,0.78063,0.80812,0.82438,0.83687,0.84375,0.84625,0.85313,0.855,0.8525,0.8625,0.89375,0.9325,0.96437,0.9875,0.99875,0.9975,0.99062,0.97875,0.95188,0.90625,0.84313,0.7675,0.69375,0.63937,0.62125,0.61875,0.59688,0.54812,0.495,0.47937,0.47875,0.41937,0.305,0.20312,0.13125,0.03813,-0.08937,-0.19688,-0.26,-0.26812,-0.2225,-0.21875,-0.29187,-0.34375,-0.32688,-0.28625,-0.25187,-0.21813,-0.20125,-0.20813,-0.21188,-0.2175,-0.22562,-0.21188,-0.19312,-0.18688,-0.18875,-0.19937,-0.21125,-0.20063,-0.16312,-0.12875,-0.10688,-0.07937,-0.04875,-0.01938,0.02063,0.075,0.1325,0.18688,0.2275,0.24938,0.26062,0.26813,0.28,0.30375,0.3325,0.35875,0.39375,0.43938,0.4675,0.48,0.49312,0.50375,0.50562,0.50875,0.5175,0.52687,0.535,0.54125,0.54438,0.54312,0.53375,0.52125,0.52,0.53063,0.545,0.55563,0.56188,0.56563,0.57312,0.58313,0.58437,0.57375,0.56312,0.5575,0.55125,0.53625,0.52,0.52125,0.53812,0.54625,0.53875,0.53687,0.54812,0.55875,0.56375,0.56375,0.56063,0.55688,0.55312,0.55,0.54625,0.54125,0.53875,0.53938,0.54125,0.54375,0.54812,0.55063,0.54937,0.54625,0.54438,0.54563,0.55437,0.56563,0.5725,0.57875,0.58625,0.5875,0.58563,0.58313,0.57688,0.56688,0.5575,0.55063,0.54063,0.5325,0.535,0.53938,0.54688,0.56188,0.57375,0.575,0.5725,0.57,0.56625,0.56312,0.56375,0.56437,0.56188,0.56188,0.57,0.57625,0.575,0.57188,0.56688,0.56063,0.55625,0.55437,0.55437,0.55937,0.56625,0.57188,0.57375,0.57312,0.56688,0.55812,0.555,0.56312,0.57875,0.58437,0.57813,0.57188,0.56875,0.56625,0.56688,0.5675,0.56688,0.56437,0.5675,0.57875,0.58688,0.5875,0.58563,0.58188,0.57813,0.57125,0.5575,0.53812,0.5175,0.50625,0.5175,0.53875,0.54875,0.555,0.5675,0.57312,0.57188,0.57062,0.56688,0.56188,0.55812,0.55563,0.555,0.555,0.55937,0.57062,0.5775,0.57563,0.57312,0.57312,0.56937,0.56312,0.56188,0.56375,0.56563,0.57062,0.5725,0.5675,0.56312,0.55875,0.55063,0.5475,0.55375,0.555,0.54688,0.54563,0.55937,0.575,0.57688,0.56688,0.5525,0.53625,0.52687,0.52375,0.5225,0.53,0.55063,0.5675,0.57125,0.56937,0.56937,0.56937,0.56875,0.56625,0.565,0.56625,0.56312,0.55437,0.54375,0.53625,0.5375,0.54125,0.53687,0.53375,0.53687,0.5425,0.54812,0.55688,0.56625,0.5725,0.57563,0.57625,0.5725,0.56375,0.55375,0.55,0.55375,0.55063,0.53875,0.54063,0.55563,0.55375,0.53563,0.52438,0.52,0.51625,0.51875,0.52812,0.5375,0.54187,0.54312,0.54187,0.53938,0.53375,0.52625,0.51938,0.51563,0.515,0.515,0.515,0.52063,0.53,0.52938,0.51938,0.51125,0.50875,0.50813,0.50375,0.50187,0.50375,0.51187,0.52312,0.52375,0.51875,0.51687,0.51438,0.51062,0.50625,0.5,0.49312,0.49625,0.51125,0.52312,0.52438,0.51938,0.51313,0.51313,0.51938,0.52687,0.53125,0.53375,0.53563,0.5375,0.54187,0.54875,0.55437,0.56125,0.56312,0.55125,0.53,0.5125,0.50125,0.49375,0.4875,0.49062,0.50625,0.51125,0.51062,0.5225,0.53438,0.54063,0.54875,0.55125,0.555,0.55875,0.54937,0.53125,0.515,0.49938,0.49312,0.5,0.50687,0.51187,0.53,0.54688,0.54563,0.54125,0.54375,0.54688,0.54688,0.54812,0.55125,0.55688,0.5625,0.56375,0.5625,0.56437,0.56875,0.5675,0.55875,0.54563,0.53063,0.52375,0.52687,0.53625,0.5425,0.54438,0.54063,0.53438,0.52687,0.51812,0.51313,0.52063,0.52938,0.52938,0.52812,0.53125,0.53687,0.54187,0.54438,0.54187,0.53438,0.5275,0.52438,0.52438,0.53312,0.5475,0.555,0.565,0.58,0.5825,0.57437,0.57,0.56312,0.54937,0.53063,0.51438,0.51938,0.54,0.54812,0.5425,0.54,0.53938,0.53563,0.52875,0.53,0.53812,0.54,0.54312,0.54875,0.54688,0.54438,0.55,0.55437,0.55563,0.55437,0.5525,0.55,0.54625,0.54187,0.54,0.54812,0.56875,0.5825,0.57813,0.57,0.565,0.5575,0.55063,0.55063,0.555,0.56,0.5625,0.55937,0.55312,0.54563,0.54,0.54438,0.5575,0.56625,0.56563,0.56375,0.565,0.56625,0.56812,0.5725,0.57125,0.5625,0.55812,0.57,0.59437,0.60812,0.6025,0.58563,0.57375,0.56437,0.54,0.50938,0.5,0.52063,0.55,0.56375,0.55937,0.5525,0.55375,0.55875,0.56063,0.56375,0.57,0.57688,0.57937,0.5775,0.57,0.5575,0.54688,0.54438,0.54875,0.555,0.56063,0.56688,0.56312,0.55063,0.54312,0.54063,0.54563,0.56063,0.57625,0.58313,0.585,0.58188,0.57437,0.57125,0.57188,0.56437,0.54812,0.53812,0.5475,0.56375,0.56937,0.57188,0.5725,0.56937,0.5675,0.56625,0.55875,0.54563,0.52687,0.50813,0.5,0.5075,0.52875,0.55625,0.57,0.57,0.57125,0.56812,0.55937,0.55437,0.5425,0.52125,0.51062,0.50938,0.50187,0.50062,0.51687,0.53375,0.54187,0.54688,0.54812,0.54688,0.545,0.5425,0.53812,0.53063,0.52375,0.51938,0.51875,0.52312,0.53125,0.54187,0.55375,0.56563,0.57,0.56437,0.55375,0.5425,0.5275,0.51125,0.50625,0.52125,0.54063,0.54625,0.54375,0.54,0.53375,0.52625,0.52187,0.52,0.52063,0.52563,0.53312,0.53687,0.53938,0.53812,0.52938,0.5175,0.50813,0.50938,0.52812,0.5475,0.55188,0.555,0.5625,0.5675,0.57,0.56625,0.55188,0.53125,0.5075,0.48812,0.4825,0.49,0.49438,0.48875,0.48625,0.49062,0.50062,0.52063,0.5425,0.55375,0.55563,0.55063,0.54,0.52438,0.505,0.495,0.50438,0.50875,0.49812,0.50125,0.51812,0.52375,0.5225,0.52563,0.52438,0.51875,0.51563,0.51938,0.52187,0.5225,0.52563,0.52875,0.52687,0.52438,0.5225,0.52438,0.5275,0.52563,0.52187,0.5225,0.52875,0.54063,0.545,0.54125,0.53875,0.53875,0.535,0.5225,0.5125,0.5175,0.53375,0.53938,0.5325,0.5375,0.55688,0.57062,0.57625,0.57813,0.57312,0.56125,0.54625,0.5325,0.51938,0.51687,0.52812,0.5425,0.54375,0.5375,0.53563,0.54625,0.5675,0.57813,0.57312,0.57,0.57563,0.58688,0.59562,0.60063,0.60875,0.61375,0.61063,0.6025,0.59562,0.5925,0.59562,0.60437,0.61563,0.62937,0.64,0.63625,0.62187,0.615,0.61313,0.60812,0.60938,0.61812,0.62375,0.62375,0.6225,0.62062,0.62062,0.62625,0.63125,0.62625,0.61188,0.59875,0.58688,0.57375,0.55937,0.54438,0.53063,0.52063,0.51375,0.51,0.50875,0.51313,0.5225,0.52875,0.53312,0.5375,0.53563,0.5325,0.52687,0.51438,0.50562,0.51,0.51375,0.51187,0.5175,0.51187,0.49,0.47437,0.46813,0.4625,0.46125,0.46437,0.4725,0.49,0.50375,0.4975,0.48875,0.49438,0.5,0.49438,0.48438,0.48313,0.4875,0.48938,0.48875,0.49125,0.49625,0.49438,0.48812,0.48562,0.49,0.4975,0.49875,0.49125,0.48562,0.48438,0.4825,0.4825,0.48562,0.49375,0.50187,0.50562,0.5075,0.50562,0.4975,0.48375,0.46937,0.46187,0.46875,0.48375,0.48125,0.46375,0.465,0.485,0.49,0.47875,0.47187,0.46875,0.46563,0.46687,0.47437,0.48625,0.50375,0.51563,0.52,0.53,0.53687,0.52812,0.51062,0.48875,0.4675,0.45688,0.45437,0.4475,0.4425,0.44562,0.455,0.47,0.4825,0.48875,0.49125,0.49312,0.49312,0.49125,0.49375,0.50187,0.50813,0.51875,0.54187,0.575,0.61438,0.64375,0.6625,0.69,0.7175,0.73062,0.73875,0.74688,0.75875,0.7825,0.80938,0.825,0.83313,0.84813,0.875,0.90063,0.9225,0.94312,0.95437,0.95625,0.94,0.89625,0.84,0.77313,0.68688,0.59813,0.54812,0.54438,0.53312,0.48187,0.41875,0.36938,0.3525,0.35875,0.33125,0.24688,0.15813,0.10187,0.04313,-0.06437,-0.1725,-0.23313,-0.25625,-0.23687,-0.21813,-0.25187,-0.2975,-0.29875,-0.265,-0.23562,-0.21375,-0.205,-0.2225,-0.23062,-0.21125,-0.20937,-0.21875,-0.215,-0.21813,-0.23,-0.25313,-0.28938,-0.3,-0.25813,-0.20125,-0.17125,-0.14938,-0.12,-0.0975,-0.07312,-0.03125,0.02063,0.07188,0.11875,0.16063,0.19688,0.2275,0.25062,0.27313,0.30125,0.335,0.37188,0.40125,0.41625,0.42563,0.43625,0.4375,0.435,0.43875,0.44375,0.45,0.47187,0.49312,0.49438,0.4875,0.48313,0.47937,0.47687,0.47063,0.46063,0.45875,0.47125,0.48875,0.4975,0.49375,0.48625,0.48125,0.47437,0.46813,0.46813,0.47563,0.48375,0.49,0.50375,0.52063,0.52187,0.51687,0.52,0.52563,0.5325,0.53625,0.52625,0.515,0.51625,0.50813,0.48438,0.47563,0.48438,0.49188,0.49562,0.49438,0.49,0.48812,0.49,0.49438,0.50125,0.50813,0.51,0.50875,0.51,0.51187,0.51187,0.51125,0.50875,0.50625,0.50938,0.51563,0.52,0.52812,0.54125,0.54812,0.5425,0.53438,0.52687,0.51687,0.50875,0.50313,0.49875,0.5,0.5075,0.505,0.50875,0.53312,0.55,0.54312,0.5325,0.53,0.52875,0.52187,0.51,0.50562,0.50875,0.50687,0.49688,0.49438,0.5025,0.51062,0.51187,0.51563,0.52125,0.52125,0.51687,0.51062,0.5075,0.50875,0.51687,0.52563,0.52563,0.51875,0.51375,0.51438,0.52312,0.53312,0.53125,0.52063,0.51438,0.51313,0.51438,0.51875,0.51875,0.52125,0.52875,0.53375,0.535,0.53687,0.535,0.53063,0.52438,0.51938,0.5175,0.52187,0.53,0.5375,0.54563,0.55188,0.54875,0.54187,0.54187,0.54187,0.53,0.51438,0.51438,0.52125,0.515,0.5,0.4825,0.47063,0.4825,0.50438,0.51563,0.51875,0.52125,0.52063,0.51938,0.525,0.53,0.525,0.52,0.52187,0.5225,0.51875,0.51875,0.52125,0.525,0.52875,0.52625,0.5225,0.5275,0.53312,0.5275,0.5175,0.50625,0.49938,0.5025,0.50438,0.50062,0.50562,0.5275,0.54625,0.54438,0.53125,0.52312,0.52,0.52,0.52563,0.53312,0.535,0.52812,0.51375,0.49688,0.48688,0.49312,0.50375,0.5,0.49562,0.50875,0.52312,0.51938,0.51313,0.51625,0.51875,0.51625,0.51438,0.51438,0.51938,0.5275,0.5325,0.53063,0.5225,0.5125,0.49875,0.48125,0.46937,0.47187,0.47875,0.47563,0.47313,0.47437,0.47875,0.49188,0.5,0.49688,0.49438,0.49938,0.50687,0.5125,0.51187,0.5075,0.50562,0.50125,0.49188,0.47937,0.46687,0.46375,0.47313,0.48125,0.48,0.48063,0.48125,0.47875,0.47563,0.47187,0.465,0.45937,0.46375,0.47875,0.48688,0.4875,0.49062,0.48562,0.46813,0.45125,0.44375,0.45563,0.48625,0.50313,0.50125,0.49938,0.50125,0.50562,0.5075,0.50438,0.49875,0.4925,0.48625,0.47687,0.46625,0.46687,0.4775,0.48812,0.49875,0.50875,0.51438,0.52375,0.53438,0.53938,0.54063,0.53812,0.52875,0.515,0.49938,0.4925,0.4975,0.49562,0.48375,0.4875,0.51,0.52687,0.52938,0.52563,0.52312,0.5225,0.5175,0.51313,0.51187,0.51062,0.51187,0.52,0.52375,0.52438,0.53,0.5375,0.53687,0.52563,0.51438,0.51125,0.51625,0.52063,0.51563,0.50625,0.50438,0.5075,0.50062,0.495,0.50813,0.52438,0.52312,0.51812,0.52063,0.52375,0.53,0.54125,0.54375,0.53375,0.5225,0.51812,0.51375,0.51187,0.5175,0.52687,0.52812,0.52812,0.53312,0.53687,0.53312,0.52187,0.5125,0.51062,0.5125,0.51375,0.51625,0.53,0.54812,0.55375,0.55,0.54812,0.545,0.5325,0.51375,0.49562,0.49062,0.50375,0.51125,0.50375,0.50875,0.52563,0.53687,0.54312,0.54438,0.54625,0.5525,0.5575,0.5575,0.55312,0.54438,0.52938,0.51563,0.51,0.51687,0.53,0.53312,0.53687,0.54812,0.55188,0.55,0.54812,0.54063,0.53125,0.52875,0.535,0.54438,0.545,0.54063,0.53687,0.535,0.535,0.54125,0.55375,0.55875,0.55625,0.55688,0.55812,0.55375,0.55,0.54625,0.54375,0.54438,0.54375,0.54125,0.54,0.54,0.54187,0.5425,0.53812,0.53438,0.5375,0.54563,0.5525,0.55937,0.5675,0.56812,0.56125,0.5525,0.54438,0.53875,0.53812,0.53875,0.54,0.54438,0.54688,0.53938,0.52063,0.4975,0.48938,0.51812,0.5575,0.55875,0.53875,0.53375,0.53125,0.52438,0.52438,0.52625,0.52625,0.52938,0.54,0.55,0.55437,0.55563,0.55563,0.55375,0.55312,0.55437,0.55125,0.54187,0.53625,0.53125,0.52,0.51313,0.51687,0.52125,0.52938,0.54,0.54375,0.54375,0.5475,0.54875,0.54812,0.55563,0.56312,0.56437,0.56312,0.55563,0.54,0.52812,0.51812,0.5075,0.50625,0.51438,0.51875,0.52187,0.52563,0.52438,0.52812,0.53938,0.5525,0.56437,0.57563,0.5825,0.57875,0.56563,0.54438,0.51313,0.48688,0.4875,0.505,0.51062,0.51438,0.53,0.53312,0.52,0.50687,0.49625,0.49188,0.50562,0.5275,0.5275,0.51812,0.52187,0.52625,0.52125,0.51438,0.51125,0.51313,0.51938,0.51687,0.50438,0.49812,0.5,0.50187,0.50687,0.51438,0.51375,0.51438,0.52063,0.52063,0.51187,0.50562,0.50875,0.5125,0.51125,0.50875,0.50625,0.5075,0.50938,0.51125,0.51438,0.52125,0.53563,0.555,0.56875,0.575,0.57688,0.57062,0.55688,0.53438,0.51125,0.50062,0.50625,0.51687,0.52187,0.52375,0.52187,0.51938,0.52563,0.53563,0.54063,0.5425,0.54625,0.55125,0.55812,0.56437,0.57312,0.5775,0.57437,0.57062,0.565,0.55437,0.54688,0.555,0.565,0.56188,0.55812,0.56,0.55937,0.55875,0.56188,0.5675,0.57625,0.58437,0.59062,0.60063,0.61375,0.62437,0.62875,0.63187,0.63562,0.635,0.625,0.61188,0.60187,0.60063,0.61125,0.6125,0.59375,0.58,0.59062,0.60312,0.60312,0.60312,0.60125,0.595,0.58563,0.57,0.55437,0.5525,0.56188,0.56188,0.55063,0.54063,0.53625,0.5375,0.54063,0.54063,0.54125,0.54937,0.55688,0.5525,0.53938,0.52563,0.51563,0.5075,0.50375,0.50875,0.52312,0.53312,0.53625,0.535,0.52625,0.51375,0.50375,0.4975,0.49312,0.49188,0.49438,0.495,0.4925,0.495,0.49938,0.50125,0.50375,0.515,0.5325,0.54375,0.5425,0.52687,0.50562,0.49062,0.47937,0.46937,0.47125,0.49438,0.5175,0.5125,0.49875,0.49625,0.4925,0.48938,0.49312,0.49812,0.50313,0.5075,0.51062,0.51313,0.51313,0.51062,0.50625,0.49875,0.4875,0.4775,0.47563,0.48187,0.48125,0.46813,0.46375,0.47125,0.475,0.47687,0.485,0.4925,0.495,0.49688,0.49562,0.49062,0.48875,0.49188,0.49875,0.50125,0.49688,0.49312,0.4925,0.49188,0.48812,0.485,0.49125,0.50313,0.51062,0.51875,0.5275,0.535,0.54312,0.54812,0.55,0.55625,0.57062,0.59313,0.62062,0.6475,0.68063,0.71813,0.74313,0.7525,0.74813,0.73938,0.74125,0.755,0.78,0.81188,0.83687,0.86188,0.89437,0.92063,0.93938,0.94625,0.9375,0.925,0.9025,0.86062,0.80562,0.73625,0.66312,0.60187,0.57,0.57312,0.56312,0.5175,0.46563,0.4275,0.415,0.405,0.35437,0.27813,0.22125,0.1775,0.09625,-0.02563,-0.12938,-0.19312,-0.22,-0.21375,-0.23313,-0.29125,-0.3175,-0.29125,-0.24438,-0.205,-0.17375,-0.15,-0.1425,-0.14062,-0.13813,-0.14687,-0.16125,-0.17688,-0.195,-0.20688,-0.21937,-0.23875,-0.24125,-0.20625,-0.15187,-0.11438,-0.09375,-0.07312,-0.05063,-0.02438,0.00562,0.03813,0.08063,0.1325,0.17625,0.1975,0.21187,0.24,0.28063,0.31437,0.33875,0.36375,0.38812,0.40375,0.4125,0.4225,0.43438,0.44375,0.45625,0.47,0.4775,0.48063,0.48562,0.48938,0.49062,0.49375,0.4975,0.49938,0.5025,0.505,0.50562,0.50562,0.5025,0.49812,0.49688,0.50187,0.50875,0.5075,0.50438,0.5025,0.50438,0.51187,0.52,0.52875,0.53438,0.53312,0.52625,0.5175,0.5075,0.49938,0.5,0.50625,0.5075,0.50813,0.51375,0.51687,0.51313,0.51062,0.50687,0.50813,0.51375,0.5175,0.51875,0.52063,0.52375,0.52875,0.53438,0.53438,0.53438,0.54063,0.55125,0.56188,0.5625,0.55125,0.53438,0.51687,0.4975,0.47687,0.47,0.48438,0.50687,0.52063,0.51875,0.51687,0.52563,0.5325,0.53312,0.53125,0.53187,0.53625,0.53687,0.52938,0.52375,0.52312,0.52563,0.535,0.5425,0.53625,0.5275,0.52375,0.51687,0.51125,0.51438,0.52125,0.525,0.52375,0.52625,0.53187,0.53187,0.53187,0.53938,0.54063,0.53375,0.53,0.5275,0.52312,0.52,0.5175,0.51812,0.52312,0.53625,0.5525,0.56,0.55937,0.55563,0.55,0.54125,0.52563,0.51125,0.51187,0.52,0.51438,0.51,0.51812,0.52063,0.52312,0.535,0.54375,0.54,0.53438,0.53,0.52875,0.53875,0.55375,0.56,0.55625,0.55375,0.54563,0.53312,0.52687,0.525,0.53312,0.555,0.56812,0.55625,0.53563,0.51812,0.5025,0.49062,0.48375,0.48688,0.49812,0.50875,0.5125,0.51125,0.51313,0.5175,0.5175,0.52125,0.52938,0.53187,0.5325,0.53438,0.53187,0.52687,0.52938,0.53812,0.54438,0.54812,0.54937,0.55,0.5475,0.54125,0.54125,0.55063,0.5575,0.5575,0.55188,0.54,0.52312,0.50625,0.49438,0.4975,0.51062,0.51438,0.51687,0.53125,0.53875,0.53625,0.53687,0.54187,0.54563,0.54937,0.55188,0.54688,0.53938,0.52812,0.51438,0.50438,0.50187,0.51187,0.53063,0.54125,0.5375,0.53125,0.52938,0.52563,0.52312,0.52563,0.53375,0.54187,0.54563,0.5475,0.5475,0.54312,0.54125,0.53875,0.53,0.52312,0.51875,0.505,0.48063,0.46375,0.46313,0.47375,0.49125,0.5,0.495,0.4975,0.50813,0.50938,0.50438,0.50187,0.5,0.49688,0.4975,0.50125,0.50125,0.50062,0.5025,0.50562,0.5075,0.51062,0.51125,0.50875,0.50938,0.51812,0.52938,0.5325,0.5325,0.53687,0.54375,0.54563,0.54,0.52875,0.51687,0.50875,0.49812,0.48063,0.48063,0.5025,0.51062,0.49938,0.4975,0.50562,0.51125,0.51812,0.53,0.54312,0.55312,0.55875,0.56125,0.55812,0.5525,0.55063,0.54875,0.545,0.54563,0.55188,0.56188,0.56875,0.5625,0.55,0.54375,0.54688,0.54812,0.54438,0.54563,0.55312,0.5625,0.57,0.5675,0.55875,0.55,0.535,0.5225,0.53187,0.55125,0.55188,0.54563,0.54625,0.54438,0.54625,0.5575,0.56188,0.55875,0.55,0.53375,0.51687,0.51,0.51062,0.5175,0.535,0.54875,0.54625,0.54375,0.54438,0.54688,0.5525,0.5575,0.56,0.56,0.555,0.54625,0.54063,0.54063,0.54,0.53938,0.5425,0.5475,0.55,0.55688,0.56812,0.56937,0.56125,0.5575,0.555,0.54812,0.54312,0.54312,0.54937,0.56,0.56375,0.55625,0.55188,0.55,0.54187,0.53812,0.54812,0.56,0.565,0.56312,0.56,0.55563,0.55125,0.55,0.54812,0.54063,0.53625,0.545,0.56375,0.58125,0.58937,0.58375,0.56812,0.55188,0.54125,0.53625,0.54063,0.55937,0.57188,0.56563,0.56625,0.57312,0.5675,0.55625,0.5525,0.5525,0.55563,0.5575,0.55625,0.55937,0.5625,0.5625,0.56375,0.57062,0.57813,0.5825,0.585,0.585,0.5775,0.56563,0.55625,0.54625,0.53312,0.52687,0.53063,0.53812,0.54375,0.55063,0.55625,0.55563,0.55375,0.55625,0.5575,0.55875,0.56,0.56563,0.5775,0.58563,0.58563,0.58563,0.58563,0.58062,0.56875,0.55563,0.5525,0.55875,0.56625,0.57062,0.57813,0.5875,0.5925,0.59625,0.6,0.60125,0.59688,0.58875,0.58625,0.59,0.58875,0.58,0.56312,0.53625,0.51125,0.49688,0.49188,0.4975,0.52187,0.55188,0.56688,0.56563,0.55563,0.54625,0.54438,0.55063,0.555,0.55312,0.56063,0.575,0.57813,0.57437,0.57437,0.57125,0.565,0.56063,0.55188,0.53625,0.52438,0.52,0.52187,0.52812,0.53375,0.54125,0.55875,0.57813,0.5875,0.585,0.57375,0.55812,0.54125,0.52438,0.51625,0.52063,0.53625,0.55437,0.55437,0.545,0.54312,0.54375,0.54,0.5375,0.53938,0.54063,0.5425,0.54875,0.55437,0.55437,0.55812,0.56188,0.55875,0.5525,0.54312,0.53,0.51938,0.51875,0.52875,0.54812,0.56563,0.57,0.57188,0.58188,0.59188,0.59875,0.60437,0.60375,0.59125,0.5725,0.55437,0.53938,0.52187,0.51875,0.52938,0.53125,0.53187,0.53687,0.53687,0.53687,0.53563,0.535,0.54375,0.55625,0.56625,0.575,0.57875,0.58188,0.5925,0.61063,0.6225,0.61875,0.60437,0.58813,0.57375,0.5625,0.55188,0.54625,0.5625,0.59375,0.60875,0.60687,0.60562,0.60812,0.61188,0.61313,0.61563,0.62312,0.62875,0.63187,0.63625,0.64438,0.65313,0.65812,0.65812,0.65438,0.65063,0.64688,0.64125,0.63437,0.63312,0.6325,0.62312,0.61063,0.605,0.59562,0.58437,0.585,0.5975,0.61,0.61125,0.60375,0.59688,0.59125,0.585,0.57875,0.57312,0.57625,0.59,0.6025,0.59562,0.58062,0.57688,0.58,0.58,0.5725,0.56937,0.57813,0.57312,0.55312,0.545,0.54688,0.54438,0.54438,0.54937,0.54812,0.5425,0.54375,0.5525,0.55812,0.55812,0.55437,0.55,0.54563,0.53875,0.5275,0.52125,0.5225,0.52812,0.52812,0.52125,0.52063,0.5275,0.52938,0.52438,0.52187,0.52563,0.53563,0.54937,0.5625,0.56875,0.57125,0.56875,0.5575,0.53938,0.51625,0.49438,0.485,0.49188,0.50562,0.51938,0.52938,0.53312,0.53187,0.52563,0.51438,0.51125,0.52063,0.53,0.5325,0.53187,0.52625,0.51438,0.505,0.50125,0.50625,0.52187,0.53187,0.52687,0.52312,0.52625,0.52625,0.52812,0.53625,0.53875,0.5325,0.52625,0.52,0.51687,0.51938,0.52563,0.53438,0.5475,0.5525,0.545,0.53938,0.5375,0.53938,0.55188,0.56688,0.57688,0.5925,0.62375,0.66312,0.69625,0.71875,0.73875,0.7575,0.77125,0.77937,0.78937,0.80875,0.83187,0.84875,0.8625,0.88125,0.905,0.92938,0.94312,0.94312,0.94062,0.93438,0.91563,0.89437,0.8725,0.83875,0.79375,0.735,0.66562,0.61313,0.595,0.5925,0.5625,0.50625,0.46,0.43375,0.42188,0.415,0.39,0.33563,0.28187,0.2425,0.1675,0.04125,-0.06125,-0.10875,-0.12625,-0.11438,-0.11125,-0.1525,-0.19937,-0.2025,-0.16875,-0.12125,-0.07437,-0.0475,-0.03875,-0.02875,-0.02875,-0.05,-0.07,-0.08437,-0.10813,-0.1225,-0.12813,-0.14438,-0.15063,-0.125,-0.08437,-0.05937,-0.04625,-0.02187,0.00438,0.02563,0.05438,0.09,0.12188,0.1625,0.21563,0.25625,0.27563,0.29125,0.30938,0.33188,0.36188,0.38812,0.405,0.42063,0.43375,0.44688,0.4625,0.47375,0.47813,0.48688,0.50562,0.5225,0.53812,0.55375,0.5625,0.56375,0.56063,0.55125,0.53563,0.52,0.50875,0.50375,0.49938,0.49312,0.49688,0.51062,0.52,0.5225,0.52625,0.53063,0.5325,0.53812,0.55,0.55812,0.55437,0.54563,0.54187,0.54625,0.54688,0.53563,0.52625,0.52687,0.52625,0.51812,0.5225,0.5375,0.54688,0.54937,0.55125,0.55188,0.5525,0.555,0.55812,0.55812,0.555,0.55437,0.55375,0.54937,0.545,0.5425,0.54125,0.5425,0.54312,0.54563,0.55188,0.55625,0.56188,0.56688,0.565,0.55937,0.55188,0.54063,0.5375,0.55188,0.56375,0.55937,0.5525,0.55375,0.55437,0.55,0.545,0.54187,0.53687,0.5325,0.53875,0.55437,0.56063,0.56188,0.56437,0.55688,0.53875,0.52187,0.51563,0.52063,0.53375,0.54812,0.55625,0.55437,0.5525,0.56063,0.57437,0.58125,0.57937,0.575,0.56812,0.56063,0.5525,0.545,0.54563,0.55,0.54187,0.52125,0.51313,0.52938,0.545,0.54438,0.545,0.55375,0.55812,0.55937,0.5625,0.56312,0.56188,0.55937,0.5525,0.54063,0.53938,0.54312,0.5375,0.53312,0.53812,0.54187,0.54187,0.54312,0.54375,0.54563,0.55,0.55,0.54625,0.54438,0.5475,0.55312,0.56188,0.57125,0.57125,0.56125,0.55188,0.54375,0.53187,0.51438,0.50375,0.51125,0.53687,0.55312,0.54625,0.53687,0.53812,0.55063,0.5725,0.5925,0.59937,0.59813,0.595,0.585,0.56688,0.54125,0.52563,0.53687,0.5525,0.5425,0.51938,0.51,0.5075,0.50438,0.51438,0.52812,0.52687,0.51938,0.51687,0.5175,0.51938,0.52312,0.52563,0.52563,0.5275,0.53187,0.53563,0.53938,0.54125,0.54,0.53812,0.535,0.53063,0.52875,0.5325,0.53875,0.54,0.53375,0.52875,0.53187,0.53875,0.54,0.5325,0.51938,0.505,0.49812,0.50562,0.51438,0.51687,0.51438,0.50875,0.5,0.49625,0.50125,0.51062,0.5175,0.525,0.52812,0.52187,0.5125,0.50313,0.49562,0.49562,0.50125,0.505,0.50313,0.5075,0.51438,0.50625,0.48938,0.4775,0.47437,0.48187,0.49875,0.5025,0.48875,0.48,0.47813,0.47937,0.48625,0.49875,0.51,0.51563,0.52625,0.54125,0.545,0.53812,0.53187,0.52625,0.5225,0.525,0.525,0.51875,0.52187,0.52563,0.50813,0.49125,0.49375,0.5,0.49938,0.50187,0.51187,0.52187,0.52375,0.525,0.52687,0.52875,0.53687,0.54875,0.55812,0.56,0.55812,0.5525,0.545,0.54187,0.54125,0.53875,0.53875,0.54937,0.56125,0.56437,0.5625,0.55563,0.54812,0.55,0.555,0.55375,0.555,0.5625,0.56375,0.55875,0.55625,0.55937,0.57375,0.59062,0.59188,0.5825,0.575,0.565,0.54688,0.52938,0.52875,0.5475,0.565,0.56625,0.56812,0.57563,0.5775,0.57813,0.57625,0.56875,0.5575,0.54688,0.54625,0.56063,0.575,0.57563,0.57312,0.57813,0.58188,0.57813,0.5725,0.56875,0.57062,0.57188,0.56875,0.5725,0.5925,0.61812,0.62625,0.62,0.61063,0.60125,0.5925,0.58125,0.56625,0.55875,0.56563,0.5725,0.565,0.55625,0.555,0.56063,0.56937,0.57437,0.57312,0.57125,0.56875,0.56437,0.55688,0.55125,0.55375,0.55937,0.565,0.57437,0.58062,0.57688,0.57,0.57125,0.57813,0.57875,0.5725,0.5675,0.56625,0.57,0.58188,0.58937,0.59125,0.59437,0.59437,0.59562,0.60187,0.60063,0.59125,0.58188,0.57563,0.57312,0.56625,0.55063,0.54187,0.5575,0.57813,0.58437,0.58688,0.59062,0.58937,0.59313,0.60063,0.6,0.59313,0.585,0.57875,0.57813,0.57625,0.57,0.57188,0.58188,0.58125,0.5675,0.56,0.56063,0.5625,0.56875,0.57813,0.58375,0.58625,0.58625,0.58313,0.57813,0.57188,0.56875,0.5725,0.58188,0.58437,0.58,0.58188,0.5875,0.5975,0.61438,0.62812,0.62875,0.62125,0.61,0.5975,0.57875,0.55375,0.5375,0.54125,0.55688,0.56875,0.57437,0.57563,0.57062,0.5625,0.55875,0.56,0.56375,0.56188,0.55125,0.54125,0.53938,0.54125,0.5475,0.55688,0.56625,0.5675,0.5625,0.55812,0.55688,0.5575,0.56312,0.57625,0.58937,0.5975,0.5975,0.58937,0.5775,0.56188,0.54,0.52,0.52063,0.54063,0.55812,0.56563,0.56563,0.56188,0.56188,0.565,0.56688,0.57,0.57312,0.57062,0.5675,0.5725,0.57875,0.5775,0.56875,0.55875,0.54812,0.53938,0.53938,0.54312,0.55,0.56063,0.56563,0.56,0.55063,0.54187,0.53312,0.53063,0.53938,0.54812,0.545,0.53875,0.53812,0.54063,0.54625,0.5575,0.56812,0.57125,0.57312,0.57375,0.57312,0.57375,0.57,0.56063,0.555,0.55563,0.55437,0.55125,0.55375,0.55563,0.55688,0.55688,0.55625,0.55625,0.55875,0.5625,0.55875,0.55125,0.54937,0.55375,0.56437,0.57437,0.57312,0.57062,0.5725,0.57,0.56125,0.56063,0.57125,0.58188,0.58937,0.60375,0.615,0.6125,0.6125,0.61563,0.615,0.61375,0.605,0.5825,0.565,0.56312,0.57,0.58937,0.62437,0.64938,0.6475,0.63937,0.63187,0.61688,0.60562,0.60625,0.61188,0.61313,0.61,0.61313,0.62125,0.6225,0.61812,0.62,0.6275,0.63437,0.63875,0.64188,0.64688,0.6475,0.6375,0.62625,0.6225,0.62,0.615,0.60938,0.61063,0.62062,0.6275,0.62062,0.61,0.60125,0.58688,0.57188,0.56937,0.5725,0.57188,0.5725,0.57125,0.5575,0.55125,0.56188,0.57375,0.57937,0.5875,0.59688,0.59562,0.58313,0.5675,0.55437,0.54625,0.54688,0.5525,0.56125,0.575,0.58,0.56375,0.54312,0.53438,0.52563,0.5125,0.51375,0.535,0.54875,0.53812,0.52687,0.52875,0.53625,0.54937,0.56375,0.56875,0.56563,0.56063,0.55812,0.5575,0.55563,0.55125,0.54563,0.5325,0.52,0.5125,0.49812,0.48688,0.495,0.51062,0.51625,0.51438,0.51625,0.51875,0.51687,0.51687,0.52063,0.52438,0.5275,0.52938,0.52875,0.525,0.51938,0.51563,0.51625,0.52125,0.525,0.525,0.52312,0.51938,0.51875,0.52,0.52187,0.52312,0.52187,0.52312,0.52687,0.53063,0.53375,0.5375,0.53812,0.53563,0.535,0.53625,0.53563,0.53,0.52312,0.52125,0.52375,0.5275,0.53438,0.54063,0.54688,0.55375,0.56437,0.57813,0.59125,0.60812,0.63125,0.6525,0.67438,0.7075,0.74063,0.75688,0.76625,0.77563,0.78625,0.7975,0.80375,0.81688,0.8475,0.87938,0.90187,0.9175,0.92812,0.93438,0.92938,0.915,0.895,0.85938,0.81062,0.75312,0.68188,0.60562,0.55875,0.55437,0.55188,0.50938,0.44875,0.40625,0.38812,0.38562,0.37125,0.315,0.23688,0.18438,0.14937,0.07062,-0.03812,-0.10062,-0.12,-0.1125,-0.08313,-0.09688,-0.17063,-0.23375,-0.24187,-0.2075,-0.15125,-0.09313,-0.06063,-0.03875,-0.005,0.00562,-0.01375,-0.02125,-0.01687,-0.02312,-0.03375,-0.05625,-0.09,-0.10188,-0.075,-0.04312,-0.0325,-0.0225,-0.01125,-0.0025,0.02687,0.07937,0.11562,0.14,0.1775,0.21125,0.23187,0.26062,0.295,0.32562,0.355,0.38063,0.39875,0.41687,0.44,0.46,0.47375,0.48,0.48,0.48375,0.48938,0.495,0.50875,0.52563,0.53375,0.54063,0.5525,0.55875,0.55563,0.5475,0.535,0.52125,0.51125,0.51125,0.52438,0.54563,0.55688,0.55437,0.55125,0.54688,0.54,0.53375,0.52625,0.5225,0.535,0.55812,0.56375,0.55312,0.54875,0.5475,0.54187,0.53312,0.52875,0.53125,0.53812,0.54375,0.54688,0.54625,0.54563,0.54875,0.55188,0.55188,0.555,0.565,0.56437,0.5575,0.55875,0.55875,0.5525,0.54563,0.53812,0.53125,0.53125,0.53875,0.54812,0.55437,0.55437,0.5525,0.55188,0.55125,0.5475,0.54187,0.54125,0.545,0.55063,0.55437,0.55437,0.55437,0.55437,0.55625,0.55625,0.55188,0.54937,0.5525,0.55563,0.55437,0.55437,0.55312,0.55312,0.55625,0.56125,0.56437,0.56625,0.56563,0.56188,0.5575,0.555,0.55375,0.55188,0.5475,0.54312,0.5475,0.55437,0.55312,0.55,0.55437,0.56,0.5575,0.5525,0.54812,0.54312,0.53563,0.52875,0.53063,0.54625,0.55812,0.55375,0.54563,0.54438,0.54438,0.545,0.54688,0.54937,0.55,0.55,0.55188,0.55188,0.55188,0.55563,0.55875,0.56063,0.56188,0.56688,0.57688,0.585,0.585,0.57312,0.55437,0.5325,0.50813,0.49125,0.49188,0.51062,0.53875,0.55812,0.55812,0.55188,0.55125,0.54625,0.53875,0.535,0.54,0.555,0.56812,0.56937,0.56375,0.56125,0.565,0.56375,0.54625,0.52625,0.52187,0.53063,0.53312,0.52125,0.515,0.52438,0.53687,0.5525,0.56625,0.56688,0.55937,0.555,0.54563,0.53,0.52375,0.53063,0.52625,0.515,0.51687,0.52438,0.52938,0.53625,0.54,0.53438,0.5275,0.52375,0.52125,0.53063,0.54812,0.55812,0.55625,0.55063,0.5425,0.53312,0.52625,0.52063,0.51313,0.50375,0.50562,0.5225,0.53687,0.53687,0.52687,0.515,0.50562,0.50562,0.50813,0.50687,0.50562,0.50375,0.50187,0.5025,0.50187,0.50187,0.50187,0.5,0.49875,0.50125,0.50687,0.5075,0.50313,0.50125,0.5,0.495,0.48625,0.47687,0.47437,0.48375,0.49625,0.49562,0.4875,0.48375,0.4825,0.48438,0.48875,0.48938,0.48688,0.48938,0.49562,0.4975,0.49625,0.49562,0.49375,0.49188,0.49125,0.49312,0.495,0.49688,0.49938,0.5,0.49812,0.5,0.5025,0.5025,0.50375,0.51125,0.51313,0.51125,0.5125,0.51375,0.51438,0.52,0.52938,0.53375,0.53187,0.52938,0.52687,0.52625,0.525,0.52125,0.52063,0.52625,0.53187,0.5325,0.5325,0.53063,0.52875,0.53125,0.53875,0.54688,0.55375,0.5575,0.55812,0.55937,0.56063,0.5575,0.55625,0.56188,0.57375,0.58062,0.57625,0.57125,0.5725,0.57437,0.57062,0.56688,0.56375,0.56063,0.56063,0.555,0.54063,0.53625,0.5475,0.55563,0.56312,0.58,0.5825,0.57,0.56125,0.55312,0.54937,0.5525,0.5575,0.56563,0.57875,0.5875,0.58937,0.59188,0.59875,0.60187,0.6,0.59813,0.5975,0.5925,0.57875,0.56312,0.55125,0.545,0.54563,0.55437,0.5625,0.56437,0.55875,0.5525,0.55875,0.56812,0.56625,0.56188,0.5625,0.5625,0.56375,0.56563,0.56375,0.56188,0.56563,0.57062,0.57563,0.58188,0.58563,0.58437,0.58062,0.57875,0.58062,0.57875,0.57937,0.59,0.59188,0.57375,0.55812,0.55125,0.545,0.55,0.56937,0.58125,0.585,0.58813,0.58813,0.585,0.58,0.57312,0.5675,0.55937,0.55,0.54937,0.56375,0.575,0.57188,0.57,0.57188,0.57,0.57062,0.57375,0.57375,0.56937,0.57062,0.57312,0.57188,0.5675,0.56563,0.56563,0.565,0.5625,0.56063,0.56563,0.575,0.58062,0.58375,0.58563,0.58375,0.58188,0.58,0.5725,0.56437,0.56375,0.56875,0.57125,0.56875,0.56875,0.57563,0.58375,0.58437,0.58375,0.5825,0.5775,0.5725,0.56937,0.565,0.56,0.56188,0.57312,0.57875,0.57375,0.57125,0.57312,0.57188,0.56625,0.5625,0.565,0.56875,0.57125,0.57062,0.5675,0.56312,0.56,0.55937,0.55688,0.55375,0.55625,0.56125,0.5625,0.56125,0.55937,0.55937,0.56125,0.56375,0.56625,0.56812,0.5725,0.57688,0.57875,0.57625,0.56937,0.56063,0.55063,0.54438,0.54812,0.555,0.55812,0.56375,0.57375,0.57688,0.57437,0.57062,0.56375,0.55563,0.54937,0.54125,0.53187,0.535,0.5525,0.56625,0.56563,0.56125,0.55688,0.5525,0.54937,0.54312,0.53312,0.53187,0.54438,0.5575,0.5575,0.55125,0.55188,0.55188,0.54875,0.54688,0.5475,0.54563,0.54438,0.54937,0.56063,0.56563,0.56375,0.56312,0.56125,0.5525,0.54125,0.53375,0.5325,0.53625,0.54563,0.5525,0.54937,0.54563,0.54563,0.545,0.54688,0.56188,0.5725,0.56375,0.55375,0.5525,0.54812,0.5425,0.54375,0.54563,0.54375,0.54438,0.54438,0.54563,0.55312,0.5575,0.55188,0.54312,0.53375,0.52312,0.52,0.52563,0.53438,0.54563,0.5575,0.56188,0.55875,0.55563,0.55188,0.54563,0.5375,0.53063,0.525,0.52125,0.52438,0.52625,0.52312,0.525,0.53125,0.53375,0.53687,0.545,0.55125,0.55,0.54937,0.55375,0.55812,0.56125,0.56063,0.55812,0.56,0.56625,0.56812,0.56937,0.57188,0.5725,0.57188,0.57563,0.58,0.58313,0.58563,0.58875,0.5925,0.595,0.59375,0.595,0.59437,0.59375,0.59562,0.595,0.595,0.59562,0.595,0.5975,0.60063,0.6025,0.60938,0.61812,0.61812,0.61625,0.61812,0.62,0.62187,0.62312,0.62312,0.62375,0.62062,0.615,0.61438,0.61438,0.61063,0.60812,0.605,0.59937,0.5925,0.58188,0.5775,0.5875,0.59937,0.59062,0.57563,0.57062,0.57,0.57,0.57188,0.57312,0.57188,0.57,0.56875,0.56688,0.56875,0.57062,0.56563,0.55688,0.55063,0.54688,0.5425,0.54,0.54438,0.55125,0.55563,0.55937,0.56812,0.57375,0.57062,0.56312,0.55812,0.56125,0.56437,0.55063,0.52812,0.5175,0.52312,0.52875,0.51875,0.50687,0.51625,0.54125,0.55875,0.56312,0.56188,0.55688,0.54625,0.54125,0.54125,0.53687,0.53,0.52375,0.51125,0.49438,0.48125,0.47375,0.47687,0.49938,0.52312,0.5325,0.53625,0.53938,0.53438,0.52375,0.51187,0.50375,0.50313,0.51375,0.51938,0.51687,0.51687,0.51812,0.515,0.515,0.52125,0.52687,0.52938,0.53063,0.53063,0.52875,0.52187,0.51375,0.51313,0.51563,0.5175,0.51687,0.51313,0.51187,0.51625,0.52125,0.52438,0.52875,0.53063,0.52812,0.52438,0.52063,0.52125,0.52563,0.53187,0.5375,0.54063,0.54875,0.565,0.58688,0.61625,0.65563,0.68812,0.70375,0.72187,0.74375,0.75375,0.7625,0.77313,0.77937,0.78813,0.79625,0.80375,0.81688,0.84563,0.89,0.92625,0.94188,0.945,0.93625,0.91687,0.89062,0.86312,0.83687,0.79875,0.73375,0.66187,0.61313,0.59562,0.5775,0.53438,0.48187,0.43688,0.41375,0.405,0.34875,0.22625,0.11375,0.04313,-0.0425,-0.13875,-0.19,-0.21875,-0.24687,-0.24625,-0.26875,-0.35,-0.40938,-0.38938,-0.32375,-0.26375,-0.22688,-0.21375,-0.22188,-0.23,-0.2375,-0.23938,-0.22313,-0.20063,-0.1825,-0.17188,-0.19,-0.21625,-0.20813,-0.17437,-0.1475,-0.12687,-0.09875,-0.06937,-0.04688,-0.015,0.03563,0.09125,0.14313,0.19,0.22875,0.26625,0.3075,0.34063,0.36438,0.38687,0.40437,0.41437,0.42312,0.43375,0.44688,0.46063,0.47187,0.48125,0.49062,0.50187,0.51313,0.51812,0.52125,0.5225,0.51938,0.52125,0.53312,0.5525,0.56625,0.56063,0.53625,0.51,0.49688,0.49812,0.50187,0.50062,0.50313,0.51812,0.52812,0.52875,0.53125,0.53312,0.53438,0.5375,0.53812,0.5375,0.54125,0.55,0.55437,0.55437,0.55812,0.565,0.56812,0.56563,0.555,0.54,0.52625,0.51438,0.50375,0.50687,0.52812,0.53938,0.53,0.525,0.53125,0.535,0.54,0.55063,0.55937,0.56
